100000,-0.02838134765625
100001,-0.030063029895083096
100002,-0.031037019132429514
100003,-0.030975341796875
100004,-0.030975341796875
100005,-0.030975341796875
100006,-0.028715763929713537
100007,-0.02871576574788775
100008,-0.028410591784825755
100009,-0.0262451171875
100010,-0.02606328153195736
100011,-0.023589453893105156
100012,-0.02163506362532679
100013,-0.018829977882463735
100014,-0.016265237870363207
100015,-0.013638835977203837
100016,-0.009915065630205225
100017,-0.006558136581890762
100018,-0.0017401295870278456
100019,0.0008246013342009041
100020,0.0047333536880345105
100021,0.0070838275648884
100022,0.009463569206554794
100023,0.010742810588466956
100024,0.012940697483780031
100025,0.013151833631282974
100026,0.015349721435662822
100027,0.01550231023537493
100028,0.01565489903509393
100029,0.015716552734375
100030,0.017852783203125
100031,0.017852783203125
100032,0.015593252608496637
100033,0.01547302610697018
100034,0.012999262104213524
100035,0.012969970703125
100036,0.010863035271819196
100037,0.010742797861253293
100038,0.010528564453125
100039,0.010466920753792651
100040,0.008025515412886652
100041,0.008116462331440973
100042,0.00655825021778798
100043,0.006012567797348402
100044,0.005645751953125
100045,0.003175034302104917
100046,0.003175032483951034
100047,0.003295297167118485
100048,0.003142710185577318
100049,0.003204345703125
100050,0.003204345703125
100051,0.003327611283704257
100052,0.00335693359375
100053,0.0011590721528882057
100054,0.00091552734375
100055,0.0009448569265136379
100056,-0.00152587890625
100057,-0.001373291015625
100058,0.000733604415851812
100059,0.0008539018261612056
100060,0.0008539027352552077
100061,0.000519387371292851
100062,0.000977150134073849
100063,-0.001373291015625
100064,-0.0016168458247220944
100065,-0.0017694346244410963
100066,-0.0016168476428930377
100067,-0.00421084269261204
100068,-0.004028902492037069
100069,-0.004119873046875
100070,-0.0015552357616630916
100071,-0.0014055469505870387
100072,-0.0016168530974399891
100073,-0.0014642661158988193
100074,-0.0016168549156109326
100075,-0.0015874898784200655
100076,-0.00152587890625
100077,-0.0014026605982517557
100078,-0.0014642706613347076
100079,-0.0014348983514531788
100080,-0.0014348974423591767
100081,-0.0014348965332822354
100082,-0.0016168621883117665
100083,-0.0014642752067705958
100084,-0.00164908448703458
100085,0.000671953443798288
100086,0.0010975011805573066
100087,0.001068115234375
100088,0.000762939453125
100089,0.0008245376980814014
100090,0.003295336257887601
100091,0.003327538556695916
100092,0.003327536738507912
100093,0.003541717419572883
100094,0.005522564554083975
100095,0.005645751953125
100096,0.005857148099601723
100097,0.005827745789863866
100098,0.00579833984375
100099,0.00579833984375
100100,0.005736751598759378
100101,0.005827753062547639
100102,0.005645751953125
100103,0.007508975303207554
100104,0.008025573594476264
100105,0.008178162394195268
100106,0.005707334743602792
100107,0.0055547459438837895
100108,0.005554745034799963
100109,0.004117148512060768
100110,0.003236495274856533
100111,0.0019809271341654847
100112,0.00091552734375
100113,0.0008245158799890749
100114,0.0009771028615269577
100115,0.0008245140618079557
100116,0.000762939453125
100117,0.0008539545532379877
100118,0.0024440898758909336
100119,0.00335693359375
100120,0.003386381357880866
100121,0.003236465275010377
100122,0.0032659139482011236
100123,0.003327480375109597
100124,0.0030812128493146397
100125,0.0031748888481223565
100126,0.003204345703125
100127,0.003265909402765235
100128,0.0030517578125
100129,0.003233809830811417
100130,0.003233811648999421
100131,0.00335693359375
100132,0.003142786548920654
100133,0.00335693359375
100134,0.0032659030391584028
100135,0.00091552734375
100136,0.001068115234375
100137,0.0011001911700553723
100138,0.0007334589618692676
100139,-0.001740019587472514
100140,-0.0017079509244929758
100141,-0.00152587890625
100142,-0.0016810413322878434
100143,-0.004119873046875
100144,-0.004486597073286625
100145,-0.006561279296875
100146,-0.006654877114212728
100147,-0.009032182401740762
100148,-0.006470236015045797
100149,-0.004909770273914269
100150,-0.003844199575020652
100151,-0.0017079709244245348
100152,-0.004119873046875
100153,-0.005586736425314634
100154,-0.008087158203125
100155,-0.01049905305285757
100156,-0.011412067679194468
100157,-0.013641858692632841
100158,-0.013949535373169121
100159,-0.01617431640625
100160,-0.016573039095846585
100161,-0.018829843337540956
100162,-0.021118660787821954
100163,-0.021027602960601265
100164,-0.02142383475090101
100165,-0.02389476967381799
100166,-0.022122778695724668
100167,-0.021241710914658193
100168,-0.021209716796875
100169,-0.02123925365156976
100170,-0.02114819218800388
100171,-0.02114819309708082
100172,-0.021148194006174823
100173,-0.0213623046875
100174,-0.021241691823837696
100175,-0.018645270419984174
100176,-0.01895044801940842
100177,-0.018677240901514288
100178,-0.01635645751512531
100179,-0.016235832833343344
100180,-0.016235831924259526
100181,-0.016021728515625
100182,-0.016326904296875
100183,-0.016203878715372086
100184,-0.014099597819157456
100185,-0.013947009019448635
100186,-0.013762477919901976
100187,-0.011444091796875
100188,-0.009733688154678295
100189,-0.008970751428835301
100190,-0.009093767010362252
100191,-0.00640869140625
100192,-0.008667931092913242
100193,-0.008820517165384359
100194,-0.009064188337660678
100195,-0.00906418742857686
100196,-0.011353004878864734
100197,-0.009246361264604267
100198,-0.00909377428305621
100199,-0.008820506256324577
100200,-0.00875900710189097
100201,-0.008911594083428846
100202,-0.008941190028790156
100203,-0.008973086874265804
100204,-0.00885009765625
100205,-0.008941192756044916
100206,-0.008759001647367957
100207,-0.009093782464851045
100208,-0.006866455078125
100209,-0.006379081824581022
100210,-0.006470179651644195
100211,-0.007754630104149475
100212,-0.009002685546875
100213,-0.008941200028738876
100214,-0.009125654764959246
100215,-0.00885009765625
100216,-0.00885009765625
100217,-0.0091552734375
100218,-0.008973059601650471
100219,-0.0091552734375
100220,-0.007321998758637907
100221,-0.00634721316081471
100222,-0.006561279296875
100223,-0.006317579942889347
100224,-0.006376852742363965
100225,-0.003935449219666591
100226,-0.004060592065554364
100227,-0.0042724609375
100228,-0.004058401165063602
100229,-0.004088048019347813
100230,-0.004149520810232837
100231,-0.0039376355747179044
100232,-0.00405840480142255
100233,-0.006287917634126527
100234,-0.003996940192311986
100235,-0.004028750674447693
100236,-0.003996943828653873
100237,-0.00396728515625
100238,-0.00405841025593538
100239,-0.004058411165029382
100240,-0.0038443632107263903
100241,-0.004211000873825325
100242,-0.004028744310830673
100243,-0.004149544446492537
100244,-0.0026851246948402705
100245,-0.0014347474429509167
100246,-0.001220703125
100247,-0.001496200233914568
100248,-0.0014347447156928428
100249,-0.001678466796875
100250,-0.0015873307881400286
100251,-0.00152587890625
100252,-8.90632896216278e-05
100253,0.0010998748076458621
100254,0.00305382325893976
100255,0.0033589944947707015
100256,0.00579833984375
100257,0.00546141539830598
100258,0.0032340443753578695
100259,0.003113201512602063
100260,0.003418376384768252
100261,0.00326578758505612
100262,0.003204345703125
100263,0.00091552734375
100264,0.0008540881890838254
100265,0.0007926508525852722
100266,-0.001678466796875
100267,-0.0017696182600987708
100268,-0.0015555957602264242
100269,-0.003662109375
100270,-0.004090152556542951
100271,-0.0039058523651906577
100272,-0.004119873046875
100273,-0.004242734992651798
100274,-0.00640869140625
100275,-0.006561279296875
100276,-0.0066821703412546386
100277,-0.006652439850970548
100278,-0.006622705724327511
100279,-0.006591016150782983
100280,-0.006531540624799399
100281,-0.006561279296875
100282,-0.006470114197343563
100283,-0.006287781271049865
100284,-0.006531533352095239
100285,-0.006470111470088811
100286,-0.0066207784591182945
100287,-0.006561279296875
100288,-0.004179379481802068
100289,-0.004058456619388269
100290,-0.003997042010069155
100291,-0.00640869140625
100292,-0.006470105106471786
100293,-0.006470104197394844
100294,-0.006378927279726684
100295,-0.006347280433282965
100296,-0.003935642855235303
100297,-0.003937515575196794
100298,-0.005463392663292911
100299,-0.006622686633489953
100300,-0.006499872869343853
100301,-0.00634728588780599
100302,-0.006317508124975008
100303,-0.006622682997148067
100304,-0.006622682088037004
100305,-0.006529661541244812
100306,-0.006440306434598182
100307,-0.006470091470157254
100308,-0.006591068877859765
100309,-0.0042110626917738845
100310,-0.003876094602274174
100311,-0.002562392748584484
100312,-0.00152587890625
100313,-0.0014942829687223142
100314,-0.00152587890625
100315,-0.001678466796875
100316,-0.0015556830326364335
100317,-0.0014644879332145221
100318,-0.0013750655541166995
100319,-0.0014960693253336758
100320,-0.0014960675071797932
100321,0.0006103515625
100322,0.0007015530255254104
100323,0.0009769128622624512
100324,0.0008541427343315509
100325,0.0009769110440915078
100326,-0.001373291015625
100327,-0.00152587890625
100328,-0.00152587890625
100329,-0.0015872589702325603
100330,-0.00152587890625
100331,-0.001678466796875
100332,-0.0018924320242278132
100333,-0.0014031260509686527
100334,-0.0017398423154216718
100335,-0.0014960402345644607
100336,-0.0014329719953720867
100337,0.000641882045750775
100338,0.000854155461545215
100339,0.000976898316860783
100340,0.0008541572797161584
100341,0.0009768964986898395
100342,0.0006717198083560367
100343,0.0006717188992688963
100344,0.0010067488067001058
100345,0.003295568075152047
100346,0.007385583359503951
100347,0.01217881348106604
100348,0.02029582762854004
100349,0.027620041833070028
100350,0.03430240944632413
100351,0.03912548460315837
100352,0.04190031076689074
100353,0.04382421145644136
100354,0.044678378736106236
100355,0.044434557564428524
100356,0.04449430854386783
100357,0.04690583703142337
100358,0.04962253766388369
100359,0.05413881886398446
100360,0.05908298142812086
100361,0.06381320331021385
100362,0.06655978261421246
100363,0.06683349609375
100364,0.06646697206656867
100365,0.0666195608662706
100366,0.06634428102921881
100367,0.06237699860022021
100368,0.057706574060998835
100369,0.0527026232448932
100370,0.04705687492807596
100371,0.04232665395507697
100372,0.03738250411817146
100373,0.0287747221849358
100374,0.017330640388094818
100375,0.002864712177225933
100376,-0.01059141269320671
100377,-0.021211223154649097
100378,-0.028382849468588375
100379,-0.03329557609449602
100380,-0.037354112713593464
100381,-0.04052704611479727
100382,-0.04309111703860187
100383,-0.045685110270139724
100384,-0.048096587848762175
100385,-0.048156444282406216
100386,-0.05044672899962412
100387,-0.05075044024120902
100388,-0.05035400390625
100389,-0.05068911654065533
100390,-0.050292679296592105
100391,-0.050597855986936106
100392,-0.05056791458835509
100393,-0.0503240597804109
100394,-0.0506591796875
100395,-0.050567911861097006
100396,-0.050383953486619
100397,-0.048065185546875
100398,-0.04803382142662882
100399,-0.045655140689839176
100400,-0.0433349609375
100401,-0.040832240077807884
100402,-0.03933632257005005
100403,-0.03839083564597883
100404,-0.03576687828867717
100405,-0.03579684332352477
100406,-0.033295502458393675
100407,-0.033080232690732715
100408,-0.0311279296875
100409,-0.028533935546875
100410,-0.02838134765625
100411,-0.028809134475140673
100412,-0.03259385125144616
100413,-0.03961423330584454
100414,-0.0524016256289843
100415,-0.06402827944230605
100416,-0.07617400153707558
100417,-0.08648999530285784
100418,-0.10086455568757757
100419,-0.11523647971895602
100420,-0.1253072732275905
100421,-0.1272256930295365
100422,-0.10936770984678659
100423,-0.07176722506242297
100424,-0.020067380640135687
100425,0.05293603021443043
100426,0.147085260537914
100427,0.24760932088525622
100428,0.33726708960961244
100429,0.39936267930566355
100430,0.42053096111289606
100431,0.39962012012207154
100432,0.35976218018939143
100433,0.3087353219337681
100434,0.2471486441950566
100435,0.18104687252447088
100436,0.11497636679310999
100437,0.048204203490232654
100438,-0.01502718511571744
100439,-0.07007766588417395
100440,-0.11490600161209519
100441,-0.14508591438526008
100442,-0.16427830267477755
100443,-0.17193651769981813
100444,-0.16659353608277286
100445,-0.15426396288574382
100446,-0.13421129915884858
100447,-0.11229993479115652
100448,-0.08941295301102742
100449,-0.07204799305963053
100450,-0.05743079331676879
100451,-0.046628285385084504
100452,-0.039671686112468574
100453,-0.03567435228538815
100454,-0.033416748046875
100455,-0.03088401942524134
100456,-0.02862525882760266
100457,-0.028290023466445397
100458,-0.025878678614523604
100459,-0.023833775062839794
100460,-0.023802581851058047
100461,-0.021148456732430612
100462,-0.021239786376765105
100463,-0.021209716796875
100464,-0.021209716796875
100465,-0.0211183853343525
100466,-0.0189208984375
100467,-0.01861572265625
100468,-0.018645803145199886
100469,-0.018676975448003768
100470,-0.0189208984375
100471,-0.018738224603395224
100472,-0.01867589817951732
100473,-0.016600920502544997
100474,-0.01638815254319288
100475,-0.016235563743480726
100476,-0.014220768862476555
100477,-0.013854349380320655
100478,-0.01364156687559078
100479,-0.011444091796875
100480,-0.011382849005080164
100481,-0.011413987671651669
100482,-0.009276726297878322
100483,-0.008971553243910328
100484,-0.008941446391428898
100485,-0.008941447300516053
100486,-0.00875773619781522
100487,-0.00640869140625
100488,-0.006652631668405998
100489,-0.006500044686864786
100490,-0.006377578194105824
100491,-0.0039060523644209436
100492,-0.003875929148377115
100493,-0.004058642073216887
100494,-0.003937157394773651
100495,-0.003814697265625
100496,-0.0038759255120181676
100497,-0.004181100384191227
100498,-0.004058646618652776
100499,-0.004150009899223125
100500,-0.002349095700419876
100501,-0.0017999714752531628
100502,0.0005500669487713506
100503,0.000762939453125
100504,0.0007017184794224507
100505,0.0007017193885096077
100506,0.0009456769233322194
100507,0.000580200164763898
100508,0.000824156790475447
100509,0.003295717165483339
100510,0.0032957180745704965
100511,0.0032655603132105016
100512,0.0032655594041335603
100513,0.0011293280262895582
100514,0.0008241513359557728
100515,0.0007931053962627703
100516,0.00091552734375
100517,0.00091552734375
100518,0.000762939453125
100519,0.000762939453125
100520,0.0008241458814327262
100521,0.0004887923388911723
100522,0.0007017348429882173
100523,0.001068115234375
100524,0.0008543245517910036
100525,0.0008241413359968374
100526,0.0011603312388613416
100527,0.003204345703125
100528,0.003204345703125
100529,0.0031733388541806754
100530,0.004853430190176641
100531,0.005768144809808893
100532,0.00561555510103001
100533,0.0056759506234079935
100534,0.00784317612296222
100535,0.008087158203125
100536,0.008178554210843942
100537,0.006500088323045884
100538,0.00579833984375
100539,0.005554353218134271
100540,0.00588973948782789
100541,0.008025970865671892
100542,0.008117373236997665
100543,0.00659149614893567
100544,0.005706936563323383
100545,0.005737156142638778
100546,0.00576737935832334
100547,0.005645751953125
100548,0.0055233900054324474
100549,0.005737159778987505
100550,0.005645751953125
100551,0.004454564773930682
100552,0.00341811093125439
100553,0.0017087018306792246
100554,0.0009767028630766064
100555,-0.0006412875025933332
100556,-0.0014344647167704424
100557,-0.001617294004806499
100558,-0.001494951147951503
100559,-0.004241535906452845
100560,-0.003937037395232111
100561,-0.005676671529628661
100562,-0.006500111050242388
100563,-0.00640869140625
100564,-0.008209491060048337
100565,-0.00885009765625
100566,-0.009002685546875
100567,-0.009063849248071723
100568,-0.008819835349830444
100569,-0.0091552734375
100570,-0.009216434411431778
100571,-0.011413824035945997
100572,-0.013824338891114165
100573,-0.016266361502292333
100574,-0.016418945756609567
100575,-0.01861572265625
100576,-0.01879858739867578
100577,-0.018982053047824948
100578,-0.018829464248105943
100579,-0.018890616131183004
100580,-0.018676874539310002
100581,-0.018646008598922556
100582,-0.01867687272113906
100583,-0.0189208984375
100584,-0.01861572265625
100585,-0.02105712890625
100586,-0.021392599721044334
100587,-0.023468238304531337
100588,-0.023589978436515835
100589,-0.0238037109375
100590,-0.02392545834218533
100591,-0.023589981163770556
100592,-0.023651123046875
100593,-0.023651123046875
100594,-0.02148406300121099
100595,-0.019012348081372664
100596,-0.01608286585329356
100597,-0.013610637299087217
100598,-0.009643353961025222
100599,-0.007567762650037313
100600,-0.004302781425492108
100601,-0.0014955566000903386
100602,0.0006406756868339951
100603,0.0008240704271765004
100604,0.0022892929029977955
100605,0.003265474859005557
100606,0.003387264990781438
100607,0.003448855053963455
100608,0.005554290491115612
100609,0.00558462643358633
100610,0.005768001174014337
100611,0.00579833984375
100612,0.005706874745398725
100613,0.005981271858640554
100614,0.0057372188696472185
100615,0.00570687201813378
100616,0.00335693359375
100617,0.0008544090969292244
100618,-0.0014647615685232263
100619,-0.003082519207824497
100620,-0.0038454559336674908
100621,-0.006561279296875
100622,-0.006347577704865113
100623,-0.00640869140625
100624,-0.008545305509819717
100625,-0.009002685546875
100626,-0.009155647981430837
100627,-0.01129150390625
100628,-0.011321875303165007
100629,-0.011352611244028055
100630,-0.014007354542072841
100631,-0.013915874898299442
100632,-0.013885498046875
100633,-0.014129570126705893
100634,-0.013824395254532834
100635,-0.01373291015625
100636,-0.0140380859375
100637,-0.0140380859375
100638,-0.014068475516158562
100639,-0.016021728515625
100640,-0.016082825853437274
100641,-0.01617431640625
100642,-0.018768310546875
100643,-0.01873791187734466
100644,-0.018768310546875
100645,-0.016357306602747226
100646,-0.016235408289542615
100647,-0.016326904296875
100648,-0.01617431640625
100649,-0.015899550203556
100650,-0.013671821909309502
100651,-0.011383004459018273
100652,-0.009246774899355445
100653,-0.008880514507523895
100654,-0.0067138671875
100655,-0.00619501981412039
100656,-0.004211378145079161
100657,-0.004119873046875
100658,-0.004058792072635336
100659,-0.0018310546875
100660,-0.0014343701716937204
100661,-0.0016480354002199001
100662,-0.0015869562441477771
100663,-0.001678466796875
100664,-0.0016173912771481663
100665,0.0008240140637578318
100666,0.0008544536422009382
100667,0.000762939453125
100668,0.0007018675697571137
100669,0.003418004568040945
100670,0.003295863528553057
100671,0.0032654148592381736
100672,0.0032654139501509995
100673,0.0030822110272610047
100674,0.0007324844202101125
100675,-0.001373291015625
100676,-0.001983642578125
100677,-0.001586942607840111
100678,-0.0014954166006172177
100679,-0.001373291015625
100680,0.0008240004274501655
100681,0.0007323471480258086
100682,0.00335693359375
100683,0.00329587534668978
100684,0.0034484641463917213
100685,0.003295877164860723
100686,0.003326456742736018
100687,0.0031737697615949996
100688,0.0008239931547493315
100689,0.00091552734375
100690,0.000671403445953388
100691,0.0010070642599985533
100692,0.000762939453125
100693,0.0009765764999486776
100694,0.0007323826024154959
100695,-0.001678466796875
100696,-0.0018615497202780053
100697,-0.00152587890625
100698,-0.0014343356263707286
100699,-0.004119873046875
100700,-0.00390624236368545
100701,-0.0039062432727623914
100702,-0.006530773355037213
100703,-0.006805439558114362
100704,-0.009063724703097664
100705,-0.00894164729974634
100706,-0.01126099069172844
100707,-0.011535643258542281
100708,-0.011566161018503144
100709,-0.011474610465926452
100710,-0.012908929728646091
100711,-0.0140380859375
100712,-0.015380852829543658
100713,-0.016418461213061935
100714,-0.017761225377850885
100715,-0.018707281390618117
100716,-0.018646254052515115
100717,-0.018798843761328118
100718,-0.01879880194325653
100719,-0.01889040976838001
100720,-0.018676747267070994
100721,-0.017089901022529733
100722,-0.016052209002950155
100723,-0.015960706632058713
100724,-0.013824477072395891
100725,-0.013824477981489895
100726,-0.01354977268761633
100727,-0.01617431640625
100728,-0.0163879216350054
100729,-0.016418475758456782
100730,-0.018768310546875
100731,-0.021118143517122278
100732,-0.02178950787230655
100733,-0.02389528603543049
100734,-0.02587892952264267
100735,-0.026122974329789987
100736,-0.02633656955862055
100737,-0.028594944703217384
100738,-0.028442355903508625
100739,-0.02603152195870356
100740,-0.02606195426440488
100741,-0.0246582327612495
100742,-0.023651123046875
100743,-0.023559538858072736
100744,-0.025268425233442214
100745,-0.026092529296875
100746,-0.026092529296875
100747,-0.026031353777507434
100748,-0.026153528453261847
100749,-0.024719422826001678
100750,-0.023651123046875
100751,-0.02215603280859895
100752,-0.021209716796875
100753,-0.019561848668723084
100754,-0.019012492626261222
100755,-0.018829303339644773
100756,-0.018768310546875
100757,-0.0189208984375
100758,-0.01885990837198493
100759,-0.016204925984019226
100760,-0.01617431640625
100761,-0.016387891635131945
100762,-0.016326904296875
100763,-0.016143947736637455
100764,-0.0164794921875
100765,-0.016265920594977005
100766,-0.018829293339696056
100767,-0.018493758888795894
100768,-0.01617431640625
100769,-0.01638788436243111
100770,-0.016143686828549216
100771,-0.01861572265625
100772,-0.01861572265625
100773,-0.01858508762403981
100774,-0.01898187395760316
100775,-0.021209716796875
100776,-0.021301330985567784
100777,-0.021148744004036785
100778,-0.0213623046875
100779,-0.021209716796875
100780,-0.021056803452866348
100781,-0.021209716796875
100782,-0.021331987835918022
100783,-0.02111809624456857
100784,-0.020019668704037236
100785,-0.01855475713611262
100786,-0.018463134765625
100787,-0.016082692217591437
100788,-0.01611335361336732
100789,-0.016326904296875
100790,-0.016265943322173508
100791,-0.015960392996873202
100792,-0.013824538890344452
100793,-0.013824155255412168
100794,-0.013885498046875
100795,-0.013885498046875
100796,-0.013977130417311337
100797,-0.01153572507640534
100798,-0.011322184392853193
100799,-0.011383139003951282
100800,-0.011322188029215571
100801,-0.011138916015625
100802,-0.009918638343581143
100803,-0.010619773188800061
100804,-0.011261247054411515
100805,-0.011322197120087347
100806,-0.013793856585566885
100807,-0.013885498046875
100808,-0.013854799378528255
100809,-0.013397491159469182
100810,-0.011352908515668251
100811,-0.008758451649505996
100812,-0.009185508471235983
100813,-0.011352443971953239
100814,-0.011199855172241051
100815,-0.013641260513147048
100816,-0.013977148599054892
100817,-0.013885498046875
100818,-0.013977150417232648
100819,-0.013824563435694838
100820,-0.013824564344778592
100821,-0.013885498046875
100822,-0.015258272700826083
100823,-0.016235247381088277
100824,-0.016235246471994272
100825,-0.01623524556291052
100826,-0.016326904296875
100827,-0.016113389067770673
100828,-0.01629671289929284
100829,-0.01617431640625
100830,-0.014068824605675738
100831,-0.013916238533225118
100832,-0.013763652460788122
100833,-0.013763654278942005
100834,-0.013885498046875
100835,-0.014312513959702487
100836,-0.01657116092142345
100837,-0.01867664090385755
100838,-0.01882922788540561
100839,-0.0189208984375
100840,-0.018676638176602856
100841,-0.018890139769406327
100842,-0.020080080589936645
100843,-0.02145336796925388
100844,-0.023681270808252153
100845,-0.026000852381166967
100846,-0.028442257722079776
100847,-0.030639396438471547
100848,-0.030883662153908833
100849,-0.03317247960418983
100850,-0.033416748046875
100851,-0.035735695076806656
100852,-0.035919058908157823
100853,-0.036102426375919115
100854,-0.03604086267621064
100855,-0.03814697265625
100856,-0.03842136249675687
100857,-0.0408935546875
100858,-0.041045462580724966
100859,-0.0433349609375
100860,-0.045592986083434484
100861,-0.04953016802361995
100862,-0.052703717786036046
100863,-0.05441227961721142
100864,-0.055358603810730204
100865,-0.05792250564434365
100866,-0.06018052079031916
100867,-0.05865536188134937
100868,-0.05572538783695357
100869,-0.05279614015347893
100870,-0.050506591796875
100871,-0.04803511142160019
100872,-0.045928955078125
100873,-0.043182373046875
100874,-0.04071014812898665
100875,-0.040740966796875
100876,-0.04055831841728286
100877,-0.0384521484375
100878,-0.03839126746247356
100879,-0.03848297619626013
100880,-0.040435791015625
100881,-0.040862723292397984
100882,-0.0433349609375
100883,-0.04553206783584055
100884,-0.04556290377637845
100885,-0.0434266742167122
100886,-0.04171817511257258
100887,-0.040710124492713204
100888,-0.03933764801941102
100889,-0.03836043152193566
100890,-0.03686622491663853
100891,-0.035949043033808865
100892,-0.038604736328125
100893,-0.038207839994968774
100894,-0.03814697265625
100895,-0.03836042606741602
100896,-0.0384521484375
100897,-0.038207836358609824
100898,-0.038361285154993464
100899,-0.038391286553311116
100900,-0.03848214347219041
100901,-0.03591901436289294
100902,-0.03826869097009787
100903,-0.038391290189653
100904,-0.0384521484375
100905,-0.03817784768753651
100906,-0.03839129291691795
100907,-0.038268681879226094
100908,-0.036866323098033366
100909,-0.03414971701067369
100910,-0.031219665693891643
100911,-0.026948126570998036
100912,-0.02008167694743705
100913,-0.012910051542523695
100914,-0.005280662465837707
100915,0.0022569860590822954
100916,0.00945950558605136
100917,0.0169353595030377
100918,0.022918129537742984
100919,0.028014370903531306
100920,0.030731008808986583
100921,0.032928080252923764
100922,0.03543032565991614
100923,0.03976362393628876
100924,0.044799020690537754
100925,0.051145885670905555
100926,0.05828758513169247
100927,0.06414675685971695
100928,0.06878522364467286
100929,0.07296692766284565
100930,0.07549907810492865
100931,0.07781881240442773
100932,0.07897969545945846
100933,0.0786435946470896
100934,0.07608052735575441
100935,0.07128947449842629
100936,0.06689535888320138
100937,0.06173830745124107
100938,0.056855500405702725
100939,0.04809717057395702
100940,0.03671496247551434
100941,0.023988296582403625
100942,0.011445153611026172
100943,0.0017104772783502293
100944,-0.004149748081996467
100945,-0.008849022205825403
100946,-0.011779137158733638
100947,-0.014067952790826631
100948,-0.01614336319343887
100949,-0.017699101680314668
100950,-0.018768310546875
100951,-0.01873735187953398
100952,-0.0187373500613665
100953,-0.018768310546875
100954,-0.0189208984375
100955,-0.018860087462199897
100956,-0.0165403022537061
100957,-0.016388843449635555
100958,-0.013672101908214843
100959,-0.013793717495191156
100960,-0.013824691617010785
100961,-0.011383286276104788
100962,-0.011506049131379108
100963,-0.01129150390625
100964,-0.009002685546875
100965,-0.006653065303071674
100966,-0.006592265236831352
100967,-0.004211660871249415
100968,-0.003876676418221477
100969,-0.0014650806581806212
100970,-0.001403095141977312
100971,0.0008547309138515647
100972,0.0010073197135603035
100973,0.0008845286765799841
100974,0.0007939399384830199
100975,0.0031125506060565486
100976,0.0008547354592874534
100977,-0.00173803686789785
100978,-0.010709709202207826
100979,-0.022823704450766417
100980,-0.03530612190120226
100981,-0.04699459214026658
100982,-0.05465499261141836
100983,-0.06442061033872072
100984,-0.07403489289778514
100985,-0.07721072992407614
100986,-0.07110848065784231
100987,-0.04801073545594217
100988,-0.006144708797992315
100989,0.049211078659719486
100990,0.12195930384154006
100991,0.2138145758256947
100992,0.31418758554915494
100993,0.4054686909819845
100994,0.4725232750023773
100995,0.50033439063719
100996,0.4894787562457432
100997,0.449504689795559
100998,0.39491062452259756
100999,0.3320755049795146
101000,0.2660373688181258
101001,0.19526769078073072
101002,0.12501654829913922
101003,0.05729595626606838
101004,-0.005967202822212355
101005,-0.05827778880639865
101006,-0.09807483867286086
101007,-0.12453735016536763
101008,-0.1401958473682339
101009,-0.14352444319355978
101010,-0.13675118684345713
101011,-0.12320331414860529
101012,-0.10339935066522887
101013,-0.07761201624043525
101014,-0.054814293203551565
101015,-0.03662527464296433
101016,-0.022188796014499614
101017,-0.012270591305628223
101018,-0.006562686564187836
101019,-0.0020754776750565693
101020,0.0008547754591335105
101021,0.00335693359375
101022,0.005614664195377508
101023,0.0059198381584530885
101024,0.008178997845492458
101025,0.0104678171139444
101026,0.012084094759009796
101027,0.012878128333502865
101028,0.013030715315040655
101029,0.01330478970221496
101030,0.015472119746869711
101031,0.01583803650367642
101032,0.018218699959941978
101033,0.015777292800854766
101034,0.01544248652897847
101035,0.013183296842058823
101036,0.010712265555945358
101037,0.010650037313387178
101038,0.010561179477692854
101039,0.008118276869850248
101040,0.00827086657862913
101041,0.006654646206076404
101042,0.0054931640625
101043,0.005767213904340978
101044,0.0054931640625
101045,0.005737610686312954
101046,0.005583489165247175
101047,0.00579833984375
101048,0.005645751953125
101049,0.007873844791421902
101050,0.008270884760372686
101051,0.008057574985028534
101052,0.008087158203125
101053,0.008147880087861211
101054,0.008241316996788952
101055,0.01043669662906527
101056,0.0109567585432112
101057,0.010497413059275072
101058,0.010618845919701293
101059,0.010712307373962358
101060,0.01046784893199562
101061,0.007781982421875
101062,0.00839072671788324
101063,0.010559726756021131
101064,0.01074348058591827
101065,0.010804195197919527
101066,0.009188066643178578
101067,0.00833162482685924
101068,0.008179037845321455
101069,0.007873862973165457
101070,0.008087158203125
101071,0.0079952758336636
101072,0.008026453591045129
101073,0.005706455656117657
101074,0.005645751953125
101075,0.00579833984375
101076,0.0035702224601027116
101077,0.003417633660393983
101078,0.0007317498776135362
101079,0.0005808447077058795
101080,-0.0013420978037716495
101081,-0.001555380306500468
101082,-0.0015865744274648813
101083,-0.0015865735183708794
101084,-0.0014634779371486078
101085,-0.00152587890625
101086,-0.001586570791105934
101087,-0.001586569882011932
101088,-0.00143398108229293
101089,-0.001342081440168406
101090,0.0008236277016219866
101091,-0.001373291015625
101092,-0.0017391532272010434
101093,-0.0017096836450359175
101094,-0.0016490008510550555
101095,0.00042654318737219576
101096,0.00091552734375
101097,0.0032944853520606183
101098,0.003509521484375
101099,0.0035407492415751468
101100,0.0030205282371254184
101101,0.0057064302016562075
101102,0.005645751953125
101103,0.005890251304014736
101104,0.005737664322473462
101105,0.00335693359375
101106,0.003204345703125
101107,0.0033863640851801314
101108,0.005645751953125
101109,0.00573766886790935
101110,0.005829587600868136
101111,0.00555383322015943
101112,0.005767088450289976
101113,0.005737672504261514
101114,0.005585085522720238
101115,0.005706417474442543
101116,0.003969137876382295
101117,0.0032356061874568008
101118,0.003081158304032793
101119,0.0008548654587811263
101120,0.000762939453125
101121,0.0010074551675873478
101122,0.0010074560766642892
101123,-0.001433949264241709
101124,-0.001678466796875
101125,-0.003904735096783062
101126,-0.003998562004171473
101127,-0.004119873046875
101128,-0.005675125172042461
101129,-0.0067138671875
101130,-0.007780066065674384
101131,-0.008910748632165875
101132,-0.011107628258677867
101133,-0.012968040710599657
101134,-0.014067442792858627
101135,-0.016266256957301013
101136,-0.018860252007020014
101137,-0.018676368177653044
101138,-0.020873242349618085
101139,-0.02105712890625
101140,-0.0211177717003881
101141,-0.021270358681919097
101142,-0.021149075820907845
101143,-0.021088436663128693
101144,-0.021178407221828864
101145,-0.0213623046875
101146,-0.02142294202710821
101147,-0.021301668256968734
101148,-0.021207718622811327
101149,-0.023864345549853543
101150,-0.023741069969315288
101151,-0.02371175584104732
101152,-0.0238037109375
101153,-0.0238037109375
101154,-0.023561190669829375
101155,-0.021514892578125
101156,-0.02111775715498643
101157,-0.02102783477789653
101158,-0.018523761196190487
101159,-0.015931814320322927
101160,-0.013642999597296823
101161,-0.011383468093574458
101162,-0.009094650643276398
101163,-0.0067452113078658015
101164,-0.0035722133614414808
101165,-0.00015466333708172146
101166,0.002226119209515372
101167,0.004728140071978259
101168,0.005888221311831599
101169,0.007963831713653793
101170,0.008482208179772825
101171,0.010651896397139886
101172,0.010620538640415237
101173,0.010802377932231521
101174,0.013153922714060915
101175,0.01312255859375
101176,0.012848750569173369
101177,0.011567440104428377
101178,0.010407347955515256
101179,0.008179138754028845
101180,0.008300352524383929
101181,0.007905341638505219
101182,0.005645751953125
101183,0.0054931640625
101184,0.005311355679644201
101185,0.0030517578125
101186,0.003296332617645962
101187,0.0018018423770437097
101188,0.0008549281858169052
101189,-0.000852744557897512
101190,-0.0015550830349114542
101191,-0.0016178703662068506
101192,-0.001647069949432416
101193,-0.001678466796875
101194,-0.0016178730934615102
101195,-0.004119873046875
101196,-0.004303865057660478
101197,-0.003906694180094681
101198,-0.006101290179056587
101199,-0.006377281831580203
101200,-0.006500691047984626
101201,-0.0064692787460463716
101202,-0.00878951122553057
101203,-0.009123856590125858
101204,-0.008879263603250141
101205,-0.00912385295378397
101206,-0.008758092559985484
101207,-0.011657261572783541
101208,-0.011444091796875
101209,-0.01129150390625
101210,-0.011444091796875
101211,-0.011414944940695355
101212,-0.011504669136722653
101213,-0.011444091796875
101214,-0.013151697268155129
101215,-0.014069524602959585
101216,-0.013946071750373993
101217,-0.013762040648860293
101218,-0.016295460176885525
101219,-0.01641892121125918
101220,-0.01608229858277182
101221,-0.016356023880439316
101222,-0.016113748157274125
101223,-0.018523702105506874
101224,-0.01882887697767993
101225,-0.01833965554950779
101226,-0.017273890305995566
101227,-0.016326904296875
101228,-0.01629544199514197
101229,-0.016234878291619043
101230,-0.01623487738252504
101231,-0.016355996607823987
101232,-0.018644812239937296
101233,-0.0189208984375
101234,-0.01733685127290107
101235,-0.016418935756660848
101236,-0.01626634877511956
101237,-0.014803428108533953
101238,-0.013854017563398414
101239,-0.013824945252377733
101240,-0.013946049932278264
101241,-0.016295418358889105
101242,-0.016203378717321963
101243,-0.013885498046875
101244,-0.014006594544963634
101245,-0.01391699125759937
101246,-0.014009034535525189
101247,-0.0140380859375
101248,-0.013885498046875
101249,-0.013885498046875
101250,-0.01129150390625
101251,-0.01129150390625
101252,-0.011323009844188034
101253,-0.013609354576748441
101254,-0.01394603720504754
101255,-0.013977547688421462
101256,-0.013609346394984482
101257,-0.013824961615967406
101258,-0.013885498046875
101259,-0.013703894208665048
101260,-0.01373291015625
101261,-0.01150462459143394
101262,-0.011412567677193411
101263,-0.011228452030510813
101264,-0.011475619552898476
101265,-0.01138356263866824
101266,-0.011383563547751949
101267,-0.011383564456839183
101268,-0.011383565365933185
101269,-0.011628216534395254
101270,-0.011383567184104128
101271,-0.011167899236061488
101272,-0.011473072290049784
101273,-0.013885498046875
101274,-0.013946019023303984
101275,-0.014006538181544965
101276,-0.013672390997998725
101277,-0.013977567688335961
101278,-0.011657197027570038
101279,-0.009889251488270714
101280,-0.009031644221947282
101281,-0.009094758824684614
101282,-0.01153616598377185
101283,-0.011475654098231704
101284,-0.011320451672296622
101285,-0.01385393210917641
101286,-0.013885498046875
101287,-0.0140380859375
101288,-0.01397757768830174
101289,-0.013917071257257364
101290,-0.012209674876113418
101291,-0.01147566864361278
101292,-0.011444091796875
101293,-0.011536175983737629
101294,-0.011199418810310429
101295,-0.013611906385067145
101296,-0.013917083984484557
101297,-0.013945998114295484
101298,-0.013824998888548518
101299,-0.016326904296875
101300,-0.01626640695671946
101301,-0.016326904296875
101302,-0.01617431640625
101303,-0.01614542045820322
101304,-0.013885498046875
101305,-0.0136435268679964
101306,-0.011351995791885946
101307,-0.01141520675785388
101308,-0.011657169754954705
101309,-0.01129150390625
101310,-0.011446826331706194
101311,-0.009063172887075057
101312,-0.009186888465899365
101313,-0.009094787915481184
101314,-0.009031551495075623
101315,-0.00906592651273351
101316,-0.0091552734375
101317,-0.009094791551823071
101318,-0.01129150390625
101319,-0.011383611729369015
101320,-0.011259874332448967
101321,-0.0115966796875
101322,-0.01364079960586604
101323,-0.013885498046875
101324,-0.01129150390625
101325,-0.00994985155533193
101326,-0.008942211842999669
101327,-0.00885009765625
101328,-0.008910569541944089
101329,-0.008697509765625
101330,-0.009002685546875
101331,-0.01129150390625
101332,-0.011351972155602203
101333,-0.0116571470277582
101334,-0.01123103747506874
101335,-0.011536214165412744
101336,-0.011351968519260316
101337,-0.011078452311708686
101338,-0.0115966796875
101339,-0.01119937790137037
101340,-0.011412425859552737
101341,-0.012572667098824427
101342,-0.013825038888394574
101343,-0.013701238764418448
101344,-0.013856713916571554
101345,-0.013917173075069041
101346,-0.013917174893222924
101347,-0.013885498046875
101348,-0.013885498046875
101349,-0.013885498046875
101350,-0.013917182165940819
101351,-0.013853812109655299
101352,-0.013825047979266352
101353,-0.013977636778975053
101354,-0.013885498046875
101355,-0.013793357496593703
101356,-0.01367246372498324
101357,-0.013853801200595518
101358,-0.01373291015625
101359,-0.0115966796875
101360,-0.01129150390625
101361,-0.009797329118963256
101362,-0.009002685546875
101363,-0.011228088395612684
101364,-0.011444091796875
101365,-0.0099816356739873
101366,-0.009002685546875
101367,-0.008757946196925982
101368,-0.008942250024657717
101369,-0.008910532269380038
101370,-0.008757943469661036
101371,-0.008881819956956812
101372,-0.008942253661009907
101373,-0.00897095960981279
101374,-0.009126571125042553
101375,-0.006806025919524853
101376,-0.006561279296875
101377,-0.00640869140625
101378,-0.006561279296875
101379,-0.008544921875
101380,-0.008757934378789259
101381,-0.00885009765625
101382,-0.008910520451243315
101383,-0.008910519542159618
101384,-0.009094852460677628
101385,-0.007387714260336521
101386,-0.006621698455526429
101387,-0.006529527905364853
101388,-0.00430421414717754
101389,-0.004059456615488517
101390,-0.00396728515625
101391,-0.0038751118788405395
101392,-0.004180286750996538
101393,-0.003906872361212159
101394,-0.0042089327000523775
101395,-0.006440457343161815
101396,-0.006653457119720349
101397,-0.006777406334007405
101398,-0.006806046828523047
101399,-0.006561279296875
101400,-0.00396728515625
101401,-0.004151649892846597
101402,-0.004088094382715399
101403,-0.004151653529201991
101404,-0.004088090746373512
101405,-0.004059471160907246
101406,-0.004151658983718374
101407,-0.003995897469015432
101408,-0.0042120617787868835
101409,-0.00396728515625
101410,-0.00396728515625
101411,-0.004243859533760228
101412,-0.003814697265625
101413,-0.004059478433597772
101414,-0.002505007214490085
101415,-0.0015862717013459767
101416,-0.0015862707922690354
101417,-0.001678466796875
101418,-0.0017706646196586602
101419,-0.00146225976001636
101420,-0.003172534311820176
101421,-0.004119873046875
101422,-0.005858726275239145
101423,-0.006682050341685904
101424,-0.006376872742261403
101425,-0.006529458814698398
101426,-0.005127605486102742
101427,-0.004151697165393488
101428,-0.00152587890625
101429,-0.0017992269326396252
101430,-0.0037543181068366896
101431,-0.002689488314231785
101432,-0.00152587890625
101433,-0.0013129145840913249
101434,-0.0016466299511428476
101435,-0.0017070027463072656
101436,-0.0030802910347014416
101437,-0.004151715347137043
101438,-0.003782853147195574
101439,-0.0038432223060316053
101440,-0.00152587890625
101441,-0.0018629042604458165
101442,-0.0017388350466205898
101443,-0.0017706873468381012
101444,-0.0014655124746753537
101445,-0.001401799692441933
101446,-0.001678466796875
101447,-0.00152587890625
101448,-0.0014336538108510105
101449,-0.0015862407923887575
101450,-0.0015862398832947556
101451,-0.001678466796875
101452,-0.0014655197473761878
101453,-0.0016181085470848777
101454,-0.001678466796875
101455,-0.0013414159882177339
101456,-0.001646589951313851
101457,-0.001373291015625
101458,-0.001678466796875
101459,-0.0014621143060679206
101460,-0.003906933270077022
101461,-0.003999171092682927
101462,-0.0038431595790061044
101463,-0.004027634315168346
101464,-0.004119873046875
101465,-0.003903498737989611
101466,-0.006653520755839852
101467,-0.006529382451382292
101468,-0.006653522574010795
101469,-0.006348347701854797
101470,-0.006650062587496058
101471,-0.006561279296875
101472,-0.006532844256109228
101473,-0.00640869140625
101474,-0.006376781833543628
101475,-0.006529367906001253
101476,-0.00662161663766337
101477,-0.006500942865180631
101478,-0.0066216148194924275
101479,-0.006348356792743636
101480,-0.00640869140625
101481,-0.00640869140625
101482,-0.006316435401866419
101483,-0.008605252852164479
101484,-0.008818169901765953
101485,-0.010556964039460368
101486,-0.011170847406450935
101487,-0.00885009765625
101488,-0.00894235911514641
101489,-0.008729446610980825
101490,-0.008665571102101801
101491,-0.0115966796875
101492,-0.011476034096760717
101493,-0.011351825792542701
101494,-0.011507983669330207
101495,-0.011504411864990013
101496,-0.00933981090069449
101497,-0.006259688047206235
101498,-0.0017104200057863766
101499,0.0032930235395512387
101500,0.009882657877503871
101501,0.016813023918900598
101502,0.02273198844436432
101503,0.03054592862063777
101504,0.036525201396086525
101505,0.03997802734375
101506,0.04183742434509293
101507,0.04202197908093697
101508,0.044310796531235035
101509,0.044676278744282066
101510,0.0468125073948647
101511,0.04986426338919018
101512,0.05401611328125
101513,0.05700391013069658
101514,0.06060571307386543
101515,0.06191869947586792
101516,0.063934326171875
101517,0.0655488174602608
101518,0.06631543326276175
101519,0.06421119509369223
101520,0.05914749329813657
101521,0.05313627458643682
101522,0.04700076847997845
101523,0.04065237623279053
101524,0.03500662791604153
101525,0.0287825303363769
101526,0.01993615448383835
101527,0.006841890931452634
101528,-0.007011592088664793
101529,-0.01949178045664473
101530,-0.027458351250637954
101531,-0.03503118842640614
101532,-0.039701122967522595
101533,-0.04238741674873618
101534,-0.04476478385414453
101535,-0.04568030574339244
101536,-0.04846266642320936
101537,-0.05007708589371493
101538,-0.050627153751614404
101539,-0.05279541015625
101540,-0.05300827720606702
101541,-0.053068554547084514
101542,-0.05300827538788575
101543,-0.052980033073632374
101544,-0.05059890416466019
101545,-0.05056686641063113
101546,-0.050566865501543865
101547,-0.05062713738802473
101548,-0.05038223167511877
101549,-0.05041427488365392
101550,-0.05056686186519524
101551,-0.0506591796875
101552,-0.04895249603083307
101553,-0.048004918205812964
101554,-0.045868688646156966
101555,-0.04541092588336565
101556,-0.04321057899764127
101557,-0.04162829091714074
101558,-0.040592240709454566
101559,-0.038118774887329746
101560,-0.035950481210068594
101561,-0.03564530633790586
101562,-0.03576582556550014
101563,-0.038512406687673195
101564,-0.04470047380141696
101565,-0.054707115438562236
101566,-0.06810665840824077
101567,-0.081570364158382
101568,-0.0934362282521104
101569,-0.1073498867952563
101570,-0.12193805968152517
101571,-0.1352492011773342
101572,-0.14120404889650337
101573,-0.1341365458136037
101574,-0.10567861027419778
101575,-0.05978965746455793
101576,0.0020247169628343853
101577,0.08696822434805265
101578,0.18840304205824443
101579,0.2899741634787654
101580,0.3728491225573326
101581,0.4225281415168135
101582,0.4339036908537105
101583,0.413810104255845
101584,0.3719206389016531
101585,0.32102452892464983
101586,0.26050742005114014
101587,0.19676183587197038
101588,0.129382273722381
101589,0.062299889204263645
101590,-0.0031923863552520255
101591,-0.0621273980566502
101592,-0.10946574279750745
101593,-0.1433201558071295
101594,-0.16582285847781636
101595,-0.1764799303094227
101596,-0.17535965224794955
101597,-0.16373488479103254
101598,-0.14540029922180442
101599,-0.12321889408795361
101600,-0.10102939443972933
101601,-0.08094397750700157
101602,-0.06378986188601643
101603,-0.051582839726889124
101604,-0.04318644394016457
101605,-0.03821126816343942
101606,-0.03588622388451343
101607,-0.03347696629721247
101608,-0.033476965388125196
101609,-0.0335693359375
101610,-0.033476963569954256
101611,-0.03323610420491924
101612,-0.03094318131605316
101613,-0.03091512900106069
101614,-0.029574003011714076
101615,-0.028533935546875
101616,-0.028594145615424366
101617,-0.025972110977943618
101618,-0.026032321046496578
101619,-0.025972114614306163
101620,-0.0238037109375
101621,-0.023651123046875
101622,-0.0238037109375
101623,-0.023378127746364934
101624,-0.021177534497947063
101625,-0.01874029277718523
101626,-0.018768310546875
101627,-0.017061831434843255
101628,-0.016387103456381644
101629,-0.01769601078331321
101630,-0.0188285078882107
101631,-0.017306821692908207
101632,-0.016539687710658026
101633,-0.016419297573429244
101634,-0.014745038942014479
101635,-0.01373291015625
101636,-0.013885498046875
101637,-0.013793101133955078
101638,-0.013765117909639388
101639,-0.011383902637351196
101640,-0.0115966796875
101641,-0.01150427913822786
101642,-0.01138390536460581
101643,-0.011383906273693083
101644,-0.009890246938986253
101645,-0.009002685546875
101646,-0.009095090641583028
101647,-0.009090825203583206
101648,-0.008974730504261914
101649,-0.008757689834277027
101650,-0.009002685546875
101651,-0.009062863797356083
101652,-0.008882330864080173
101653,-0.00894250911456486
101654,-0.008878036335273414
101655,-0.009095098823360804
101656,-0.00885009765625
101657,-0.009247688532163475
101658,-0.006561279296875
101659,-0.0067138671875
101660,-0.006501109228171692
101661,-0.006561279296875
101662,-0.006653698936974363
101663,-0.003782444057876725
101664,-0.00396728515625
101665,-0.004180038570142419
101666,-0.0015860435204234171
101667,-0.001678466796875
101668,-6.452459724010535e-05
101669,0.0009756892306584717
101670,0.0007952053880869394
101671,0.00091552734375
101672,-0.0018633242588172788
101673,-0.00152587890625
101674,-0.001863327895179834
101675,8.80378389575663e-05
101676,0.0007027839298233605
101677,0.003019479150310945
101678,0.0032967798886193037
101679,0.004878400698933471
101680,0.005858491730709753
101681,0.005400727149740751
101682,0.005738189774967916
101683,0.0058584890034448075
101684,0.005645751953125
101685,0.005766046636172729
101686,0.005678046978890276
101687,0.003449375961028804
101688,0.0031442010888660813
101689,0.003296789888585083
101690,0.0034170763898379755
101691,0.0030840619291370532
101692,0.003204345703125
101693,0.00311637331845788
101694,0.000762939453125
101695,0.0008230777037770867
101696,0.0009756646853080847
101697,0.001068115234375
101698,-0.0013131554922378586
101699,-0.001373291015625
101700,-0.0015581993864426042
101701,-0.001586011702372196
101702,-0.001373291015625
101703,-0.0015860098842012526
101704,-0.003934957403339501
101705,-0.0039071559964696904
101706,-0.0040875416576226144
101707,-0.004360382413285573
101708,-0.0064688178387653636
101709,-0.008544921875
101710,-0.009150720727972102
101711,-0.01138396809162458
101712,-0.011444091796875
101713,-0.01141174768040895
101714,-0.0115966796875
101715,-0.011444091796875
101716,-0.013700560585219939
101717,-0.013917849436072388
101718,-0.013853144839503052
101719,-0.013580322265625
101720,-0.016202075085991748
101721,-0.01635926295877684
101722,-0.016359264776944164
101723,-0.01861572265625
101724,-0.018768310546875
101725,-0.01861572265625
101726,-0.01882842061580069
101727,-0.01867583181609875
101728,-0.01867583090700475
101729,-0.018768310546875
101730,-0.0189208984375
101731,-0.0189208984375
101732,-0.018708205932462137
101733,-0.01882841425219386
101734,-0.018800692845029603
101735,-0.018860796550352082
101736,-0.018828411524928913
101737,-0.0189208984375
101738,-0.018740600957851086
101739,-0.01858333126722362
101740,-0.01730721805502689
101741,-0.01644709716211105
101742,-0.016234411929791085
101743,-0.016511890849230836
101744,-0.013793003861613421
101745,-0.011629081985572722
101746,-0.009062777434057137
101747,-0.008914909525079218
101748,-0.006376283653647387
101749,-0.004027374316177533
101750,-0.0017986432985555
101751,-0.00153061797876876
101752,0.0010032851838022265
101753,0.0032644312267003047
101754,0.006103515625
101755,0.00833225027897064
101756,0.010496142155120718
101757,0.01068115234375
101758,0.010588645431264416
101759,0.010588644522180756
101760,0.010801310663686945
101761,0.010746015121502119
101762,0.01043605390429753
101763,0.010801305209157055
101764,0.010986328125
101765,0.01068115234375
101766,0.010255829151622837
101767,0.00823974609375
101768,0.005950927734375
101769,0.00579833984375
101770,0.0057106474579882195
101771,0.0031118269725026932
101772,0.0016508499347227448
101773,0.0008230067949567498
101774,0.0008230058858730925
101775,0.0007028739294641937
101776,0.0007304807916336087
101777,0.000883066864104726
101778,0.001068115234375
101779,0.00091552734375
101780,-0.0015583448404251647
101781,-0.0016184067277440844
101782,-0.004212401777446026
101783,-0.004059814795915028
101784,-0.003874754607501316
101785,-0.004179929479664029
101786,-0.004059817523179973
101787,-0.0014333456302430855
101788,-0.001493398426673167
101789,-0.00152587890625
101790,-0.00152587890625
101791,-0.0018635406216067237
101792,-0.0016134912923537873
101793,-0.0017710055274288657
101794,-0.001618418545887521
101795,-0.001678466796875
101796,-0.0017109618218876224
101797,-0.00152587890625
101798,-0.001710965458229509
101799,0.000762939453125
101800,0.0005503087660356979
101801,0.0007904772246109002
101802,0.0007028984748316413
101803,0.0008229795223243567
101804,0.0007029002930092975
101805,0.0031443074520965866
101806,0.0031117951544344115
101807,0.003509521484375
101808,0.003111793336263468
101809,0.00335693359375
101810,0.000762939453125
101811,0.0008229722496235226
101812,0.000762939453125
101813,0.0005177946502025793
101814,0.000975557412993926
101815,0.003264374863281636
101816,0.001618438545812366
101817,0.00335693359375
101818,0.003171810678283381
101819,0.0031443201793169622
101820,0.003171807041941494
101821,0.0032368861824965097
101822,0.0033294530947255885
101823,0.004817724268573207
101824,0.005918381800494299
101825,0.0034169536630348583
101826,0.0032969144335591436
101827,0.003204345703125
101828,0.003422040006920348
101829,0.0034169500266862615
101830,0.00326436122697397
101831,0.0032369043642400644
101832,0.0033894940730189475
101833,0.0032969207971659757
101834,0.0009755392312503731
101835,0.002991746834086919
101836,0.003231788020457237
101837,0.003231785293226413
101838,0.0034169418448981356
101839,0.00323691890962103
101840,0.0033243585690793847
101841,0.0029917522886168096
101842,0.0035146741915937554
101843,0.0054605835832994935
101844,0.005705754749753596
101845,0.00579833984375
101846,0.005738338865302698
101847,0.005673164270611081
101848,0.005830929413822284
101849,0.005918336346135417
101850,0.007874572970394586
101851,0.00823974609375
101852,0.005863533529262114
101853,0.005613153292180939
101854,0.005983528213472943
101855,0.005313185672491422
101856,0.0032969417061641227
101857,0.0031717397694971654
101858,0.003389541345565839
101859,0.0032643348634526395
101860,0.003111746063733637
101861,0.003236958909450022
101862,0.003144359270062306
101863,0.003019140969812384
101864,0.0031443610882332493
101865,0.003176982476356754
101866,0.0006703343592141007
101867,0.00091552734375
101868,0.00091552734375
101869,0.000762939453125
101870,0.0008229186134868599
101871,0.0007955708412276964
101872,0.0008229167952988559
101873,0.0006103515625
101874,0.000762939453125
101875,0.000762939453125
101876,0.002588686888501318
101877,0.002959142718612967
101878,0.00317170158778793
101879,0.0031117287910670238
101880,0.003204345703125
101881,0.0033242840239037508
101882,0.005771022980468765
101883,0.005618437817125771
101884,0.00573302979502454
101885,0.0057383743197128665
101886,0.005678410613843026
101887,0.00585830354961619
101888,0.007258894155838751
101889,0.008299707981445246
101890,0.005738378865148755
101891,0.005705712022642599
101892,0.005765670273985602
101893,0.005678423341077402
101894,0.00579833984375
101895,0.005613076928830711
101896,0.0059836045768365785
101897,0.008147112818119412
101898,0.00821247286667377
101899,0.009700260406043876
101900,0.010708420116313401
101901,0.010833740234375
101902,0.010833740234375
101903,0.01068115234375
101904,0.01049587306527516
101905,0.01068115234375
101906,0.010528564453125
101907,0.01071384918612973
101908,0.010528564453125
101909,0.010588508159076691
101910,0.010833740234375
101911,0.010528564453125
101912,0.010615740477246983
101913,0.010561272204564511
101914,0.010495854883531606
101915,0.010801028846593601
101916,0.01312255859375
101917,0.012969970703125
101918,0.013182494117906856
101919,0.012877317427579913
101920,0.01312255859375
101921,0.01291003790622273
101922,0.012784658697504937
101923,0.0114168867513371
101924,0.012724724991519025
101925,0.013029899863675023
101926,0.013062630342283619
101927,0.01309536445723776
101928,0.013275146484375
101929,0.013215220960166864
101930,0.013062633978635866
101931,0.012969970703125
101932,0.0128173828125
101933,0.012664794921875
101934,0.01068115234375
101935,0.010288884174412018
101936,0.00827249566318579
101937,0.008272497481360394
101938,0.007967323518298399
101939,0.008147074636461358
101940,0.008027242678882643
101941,0.00796172626735115
101942,0.008027244497053587
101943,0.007874657515522588
101944,0.005645751953125
101945,0.00579833984375
101946,0.0054931640625
101947,0.005520303653781575
101948,0.003416841845291523
101949,0.003231479839893745
101950,0.0010409838249394432
101951,0.00091552734375
101952,0.0008556227285674244
101953,0.0009211845945571321
101954,-0.0018638369841017357
101955,-0.0016185649089573697
101956,-0.0018638406204570172
101957,-0.0016185667271283132
101958,-0.0031387665644857393
101959,-0.004087081659401487
101960,-0.0040271824987317415
101961,-0.0037220058083981033
101962,-0.004059977522564202
101963,-0.004119873046875
101964,-0.004179766753014855
101965,-0.00396728515625
101966,-0.004092785273613355
101967,-0.006468582385124909
101968,-0.00640869140625
101969,-0.00640869140625
101970,-0.009035496934280072
101971,-0.01070822648070398
101972,-0.011258688882503042
101973,-0.012997039385535055
101974,-0.013858432091695768
101975,-0.013640205971799076
101976,-0.013918320343319123
101977,-0.013792792044253132
101978,-0.013586093152329351
101979,-0.011225848404328755
101980,-0.011503970957613187
101981,-0.01147692318417751
101982,-0.011378425385893972
101983,-0.013487610808483607
101984,-0.013885498046875
101985,-0.013858462091593107
101986,-0.011503965503100356
101987,-0.011318534407019064
101988,-0.011444091796875
101989,-0.011411245864170822
101990,-0.01138422172700859
101991,-0.011689398417335533
101992,-0.01129150390625
101993,-0.013792777498861831
101994,-0.013885498046875
101995,-0.01379277568068052
101996,-0.016201322361685738
101997,-0.016021728515625
101998,-0.016294042000601885
101999,-0.016114454518161365
102000,-0.013792771135244632
102001,-0.01394535811679269
102002,-0.013765779725227623
102003,-0.011749267578125
102004,-0.011231646563597255
102005,-0.013825641613316257
102006,-0.014310384877088604
102007,-0.016326904296875
102008,-0.016267050590570833
102009,-0.016267051499658142
102010,-0.016326904296875
102011,-0.01635386934338774
102012,-0.01644660443677882
102013,-0.016234165567118278
102014,-0.016512383574563066
102015,-0.01629401109162393
102016,-0.016446597164095047
102017,-0.018735413705282044
102018,-0.02114987218144261
102019,-0.022729638453600393
102020,-0.023710965844126075
102021,-0.026185275299325864
102022,-0.026092529296875
102023,-0.0261523693668715
102024,-0.0262451171875
102025,-0.026092529296875
102026,-0.0262451171875
102027,-0.026026699250201978
102028,-0.026092529296875
102029,-0.02593994140625
102030,-0.026304950893862238
102031,-0.0262451171875
102032,-0.028474103658683705
102033,-0.028659618390802007
102034,-0.028228759765625
102035,-0.028533935546875
102036,-0.030179470956823818
102037,-0.031068102344744594
102038,-0.030855688929531448
102039,-0.030762928381665538
102040,-0.02932981365964408
102041,-0.028533935546875
102042,-0.02838134765625
102043,-0.028348403542096775
102044,-0.026861539635507126
102045,-0.025906993655734144
102046,-0.026218247595192107
102047,-0.02612548068373274
102048,-0.02593994140625
102049,-0.02463256043702426
102050,-0.023591307522256317
102051,-0.0238037109375
102052,-0.023651123046875
102053,-0.0238037109375
102054,-0.026032717408598204
102055,-0.02627808311975941
102056,-0.027585440452711708
102057,-0.028533935546875
102058,-0.028474127294946777
102059,-0.028408181794147724
102060,-0.028593741980621906
102061,-0.028593741071544963
102062,-0.02707401395957115
102063,-0.02605954881923467
102064,-0.02887209362393996
102065,-0.028500951432872033
102066,-0.028474134567640925
102067,-0.028533935546875
102068,-0.028599914683899212
102069,-0.028500944160188262
102070,-0.028288557108500128
102071,-0.0286865234375
102072,-0.0286865234375
102073,-0.028500936887491116
102074,-0.028500935069316485
102075,-0.0286865234375
102076,-0.0287463153258623
102077,-0.028348341724161594
102078,-0.028533935546875
102079,-0.02838134765625
102080,-0.02859372379887835
102081,-0.02862673609457359
102082,-0.028593721980707407
102083,-0.02838134765625
102084,-0.028746308053161463
102085,-0.028348327178759927
102086,-0.028414369951893958
102087,-0.028659765662935443
102088,-0.028441128635562894
102089,-0.028533935546875
102090,-0.028288538926756573
102091,-0.028593713798929634
102092,-0.03008655859138189
102093,-0.030849495317256018
102094,-0.03088252943103969
102095,-0.030975341796875
102096,-0.032402099270962464
102097,-0.03368888153254948
102098,-0.03609724185063947
102099,-0.038299560546875
102100,-0.0359509721172402
102101,-0.032016737438326434
102102,-0.025946275927055736
102103,-0.018714882270093623
102104,-0.01154325686524254
102105,-0.004000341997227185
102106,0.002315524315990899
102107,0.007841746128510903
102108,0.01077397743682272
102109,0.01089350212283996
102110,0.013367973395618663
102111,0.014429714109301068
102112,0.017640436151299985
102113,0.022947941845873072
102114,0.029535904372116287
102115,0.037225051700977244
102116,0.044516189064631895
102117,0.05099103142541738
102118,0.05456030388924874
102119,0.05678936581465455
102120,0.05685553131461544
102121,0.05530298826981104
102122,0.05036042933585881
102123,0.04468159235999611
102124,0.037390467723588526
102125,0.031227209300932965
102126,0.026012575062872842
102127,0.01893379475107651
102128,0.011430351244399704
102129,-0.0007169244806568656
102130,-0.012897304319365059
102131,-0.023618018933350925
102132,-0.031001976844619382
102133,-0.033655708328393076
102134,-0.035645827244964484
102135,-0.036256179716548105
102136,-0.03741065734184372
102137,-0.038511884871520574
102138,-0.04086043784676226
102139,-0.04336157689442388
102140,-0.045716633480733994
102141,-0.0457763671875
102142,-0.04819116566237095
102143,-0.05077212076280419
102144,-0.054679669484982436
102145,-0.06167210740586536
102146,-0.06749704138845677
102147,-0.0725389753900238
102148,-0.07504665077590944
102149,-0.0750732421875
102150,-0.074920654296875
102151,-0.07358050375826118
102152,-0.072479248046875
102153,-0.06994497579488597
102154,-0.0677490234375
102155,-0.0651881770465833
102156,-0.06122747368290287
102157,-0.0579302647050879
102158,-0.05395639593804993
102159,-0.050201416015625
102160,-0.04586923955310254
102161,-0.04309610247375948
102162,-0.038604736328125
102163,-0.035891316591971624
102164,-0.033416748046875
102165,-0.03347645902646157
102166,-0.03755653798586893
102167,-0.048901113806548345
102168,-0.06190424316856457
102169,-0.07637354772973366
102170,-0.08650404676338179
102171,-0.09989859520701022
102172,-0.11058638934303545
102173,-0.11574784803069464
102174,-0.11231134929225796
102175,-0.09463782387588024
102176,-0.05836845633190885
102177,-0.004524990863509999
102178,0.061804144770717294
102179,0.148082396352339
102180,0.24814678394433168
102181,0.348403644422826
102182,0.4290631642492141
102183,0.4764984689161408
102184,0.48503062508318207
102185,0.45631797780856476
102186,0.4043056897543415
102187,0.3393432224353422
102188,0.26702334134304334
102189,0.19292537384278316
102190,0.1157159584588009
102191,0.04207575190273032
102192,-0.02647611325648041
102193,-0.08911028024981249
102194,-0.13858868635359886
102195,-0.1761984701930003
102196,-0.20249706777851903
102197,-0.21575251100636422
102198,-0.2167080306187332
102199,-0.20753308210648097
102200,-0.18922932429597566
102201,-0.16732314445381177
102202,-0.14147613086763586
102203,-0.11836890752058975
102204,-0.09868508417546878
102205,-0.08137618976326119
102206,-0.07111276427752465
102207,-0.06144005891571859
102208,-0.056311747977754366
102209,-0.05280223103884937
102210,-0.05023466376495698
102211,-0.04632704958844082
102212,-0.0442573228001741
102213,-0.041723000548322044
102214,-0.03922193150040382
102215,-0.035924667977282505
102216,-0.033297418814628416
102217,-0.030975341796875
102218,-0.0282620220603453
102219,-0.024633178616441608
102220,-0.021209716796875
102221,-0.018861238366812597
102222,-0.016293634729436804
102223,-0.016300517429950617
102224,-0.013825840703452542
102225,-0.011410816774927696
102226,-0.011172192855746969
102227,-0.0091552734375
102228,-0.008916658609177711
102229,-0.007868005723196281
102230,-0.009095621548597041
102231,-0.011861648655584388
102232,-0.0151922135641365
102233,-0.016386553458519682
102234,-0.01669172833067568
102235,-0.01880160375056586
102236,-0.016419845753120263
102237,-0.016081374040910736
102238,-0.01781948454491759
102239,-0.02038017639095917
102240,-0.025143699658575703
102241,-0.0301790982310127
102242,-0.03323085422534548
102243,-0.03335710797610209
102244,-0.03326416015625
102245,-0.031161241072921075
102246,-0.0286865234375
102247,-0.025727717081200648
102248,-0.023505533310814914
102249,-0.019690840590659925
102250,-0.017368706300376777
102251,-0.01641985938942793
102252,-0.01373291015625
102253,-0.01373291015625
102254,-0.011630007436510747
102255,-0.011417792202309445
102256,-0.011570382820216451
102257,-0.008943058203322425
102258,-0.00644202642794452
102259,-0.004425048828125
102260,-0.003728786691072814
102261,-0.0015925598586988218
102262,0.0010943957381000604
102263,0.0033832113701618718
102264,0.005884235872798154
102265,0.008146778273966346
102266,0.00823974609375
102267,0.008027539950461262
102268,0.008087158203125
102269,0.0082134846809278
102270,0.0057387243183445414
102271,0.005705366569436456
102272,0.00814677191035285
102273,0.008146771001265513
102274,0.010774128345328489
102275,0.012047322477972848
102276,0.013029580774000567
102277,0.015683183167333924
102278,0.015318397315204624
102279,0.015530591640346245
102280,0.01800537109375
102281,0.017819406363379357
102282,0.017919540518950706
102283,0.015385153721943793
102284,0.015470979751299734
102285,0.015530580731320584
102286,0.015716552734375
102287,0.017049280574566297
102288,0.017852783203125
102289,0.015504366591011155
102290,0.013215549140713096
102291,0.010647757322260804
102292,0.009009883700703516
102293,0.008120556860956083
102294,0.005679152429144088
102295,0.005738747045523985
102296,0.005857931732882013
102297,0.00579833984375
102298,0.005645751953125
102299,0.005645751953125
102300,0.005891339481584874
102301,0.007781982421875
102302,0.00823974609375
102303,0.010223388671875
102304,0.010740736960181178
102305,0.010621568636395762
102306,0.010654991839594294
102307,0.010554722230029897
102308,0.01296269982232146
102309,0.01302955077412029
102310,0.012936541136336696
102311,0.01553781797590196
102312,0.015590108984347232
102313,0.0152587890625
102314,0.013952371725887395
102315,0.01269823357953508
102316,0.010502431221584627
102317,0.007755851917585432
102318,0.0054931640625
102319,0.003237791633502975
102320,0.0016523444743602865
102321,0.000762939453125
102322,0.0006438029473870649
102323,-0.0018310546875
102324,-0.0016450117756252477
102325,-0.0013993997018320473
102326,-0.0016450081392833608
102327,-0.003044400568415397
102328,-0.004026847954595737
102329,-0.005392771726135411
102330,-0.006501718316700206
102331,-0.006561279296875
102332,-0.0067138671875
102333,-0.006747338572305303
102334,-0.008206272890756693
102335,-0.009002685546875
102336,-0.009088319758829611
102337,-0.011444091796875
102338,-0.013878090802994798
102339,-0.018727416463659705
102340,-0.026178148963462065
102341,-0.03508779396354507
102342,-0.04225942027741677
102343,-0.04559028973029202
102344,-0.045530739659177005
102345,-0.0452925493746998
102346,-0.04184257705236287
102347,-0.03848564527678007
102348,-0.03452581463702915
102349,-0.03122097387063388
102350,-0.028169216967210822
102351,-0.0262451171875
102352,-0.023353418145692112
102353,-0.018954406185826535
102354,-0.014868044523654077
102355,-0.009587010241065131
102356,-0.004067824764819276
102357,0.0010606216271284467
102358,0.004663190930978376
102359,0.008332799367755658
102360,0.0104355102700424
102361,0.012936448409396797
102362,0.014700453054938807
102363,0.015437382003332365
102364,0.01800537109375
102365,0.01809842982226849
102366,0.01949018409921257
102367,0.02032018359428674
102368,0.020294189453125
102369,0.02050630286950797
102370,0.018124420327091245
102371,0.017547607421875
102372,0.01537783465949936
102373,0.015597508955563645
102374,0.015496872983788327
102375,0.01544492470128053
102376,0.015657033572234268
102377,0.015377825568627582
102378,0.01312255859375
102379,0.013182075028636194
102380,0.013241589645347692
102381,0.01068115234375
102382,0.01068115234375
102383,0.010714714637307199
102384,0.010621640454299695
102385,0.01068115234375
102386,0.010774230163106045
102387,0.008146667365317014
102388,0.008206174709321024
102389,0.008053585000528834
102390,0.00833282754944793
102391,0.006103515625
102392,0.0057464879244632505
102393,0.002992254104837877
102394,0.0010086124357964713
102395,0.0006362693403485388
102396,0.0006775234221612896
102397,0.0009491150917345276
102398,0.00091552734375
102399,-0.0005767601781602809
102400,-0.0014922857037355816
102401,-0.0014663824712887112
102402,0.0008224349790093475
102403,0.0008224340699153455
102404,0.002958663629581752
102405,0.0030517578125
102406,0.0033233294821758005
102407,0.0033828186444703765
102408,0.003271561198957173
102409,0.005586262790854136
102410,0.005857828096933513
102411,0.008087158203125
102412,0.008087158203125
102413,0.008180260567831431
102414,0.008087158203125
102415,0.008273366568879751
102416,0.0079345703125
102417,0.007900946201028363
102418,0.00818026511326732
102419,0.005705232024524088
102420,0.005764710277714351
102421,0.005552642315700673
102422,0.0054595308601224635
102423,0.00567159336758919
102424,0.008087158203125
102425,0.008273384750657427
102426,0.008146631910889785
102427,0.008206103800500686
102428,0.008544921875
102429,0.00818027511323975
102430,0.008053510455345796
102431,0.007900920746532791
102432,0.008053506819003908
102433,0.008180278749592047
102434,0.005738873408675638
102435,0.005857805369737009
102436,0.005738875226856993
102437,0.00579833984375
102438,0.003297470795027936
102439,0.003204345703125
102440,0.0034500605038238798
102441,0.0033232658460392367
102442,0.003204345703125
102443,0.003297475340463825
102444,0.0048154660955603435
102445,0.0032716957439140734
102446,0.003204345703125
102447,0.003111212429444288
102448,0.003483748251449141
102449,0.0016269257855248145
102450,0.000856075454070657
102451,-0.0010007433754663636
102452,-0.0018052923635998013
102453,-0.0015853280686643975
102454,-0.0014664306529191906
102455,-0.0014921857041119084
102456,-0.0017121618172010957
102457,-0.0015853244323225108
102458,-0.0015853235232285087
102459,-0.0017379105047699212
102460,-0.00152587890625
102461,-0.003933581045052127
102462,-0.0064007205281831105
102463,-0.01040170888650286
102464,-0.013826058884415966
102465,-0.018175701339473414
102466,-0.0251947370354714
102467,-0.03740176101285587
102468,-0.04481912485462212
102469,-0.050201416015625
102470,-0.05041343761418579
102471,-0.05044715899803322
102472,-0.052854842046014844
102473,-0.0531005859375
102474,-0.05313431368495049
102475,-0.0507523384156251
102476,-0.048955016021032305
102477,-0.046666200388888135
102478,-0.043580710283515046
102479,-0.039375723931743156
102480,-0.03445917732068297
102481,-0.02949126060670994
102482,-0.02448154708567773
102483,-0.021031451127477806
102484,-0.01699667684009048
102485,-0.013826077975246879
102486,-0.013885498046875
102487,-0.01138467354341782
102488,-0.011325257108148646
102489,-0.011384675361595408
102490,-0.011410334958634466
102491,-0.011477850453303538
102492,-0.00906209925489629
102493,-0.008731272058395424
102494,-0.006374927295312407
102495,-0.004916578429112311
102496,-0.003907875084587658
102497,-0.003840336862756203
102498,-0.00396728515625
102499,-0.004001058358080206
102500,-0.004213054502196605
102501,-0.004238684099314623
102502,-0.004119873046875
102503,-0.0040266888642884495
102504,-0.004246840431240475
102505,-0.0016446826859850125
102506,-0.001678466796875
102507,-0.0017460422913387484
102508,-0.001678466796875
102509,-0.001220703125
102510,-0.0014408774191485298
102511,0.0007291444331960703
102512,0.0006697470887606742
102513,0.0007373434922499835
102514,0.0033231331193044615
102515,0.0032381479957585423
102516,0.005738947953837853
102517,0.005790118966623927
102518,0.008027768131394216
102519,0.00823974609375
102520,0.008087158203125
102521,0.00799395765697626
102522,0.00811272961866669
102523,0.00823974609375
102524,0.008087158203125
102525,0.00579833984375
102526,0.0054931640625
102527,0.005586370063171992
102528,0.005764513914843012
102529,0.005738959771967935
102530,0.005738960681061937
102531,0.005679583336541036
102532,0.005705129297642119
102533,0.005586375517701882
102534,0.005645751953125
102535,0.005823875804881522
102536,0.005976460968255782
102537,0.00833296118529377
102538,0.008087158203125
102539,0.007993941293410287
102540,0.00576449209675757
102541,0.005857709006482706
102542,0.0071039280927063676
102543,0.00811267234615402
102544,0.008180379658275602
102545,0.00823974609375
102546,0.008053299547093636
102547,0.009579176635168905
102548,0.010715014636144098
102549,0.010740514233788509
102550,0.01038434743902746
102551,0.008087158203125
102552,0.00823974609375
102553,0.008180387840070438
102554,0.006569668355111895
102555,0.00579833984375
102556,0.005645751953125
102557,0.005679630609074649
102558,0.0032636994113686736
102559,0.0032975807945832677
102560,0.005518631842093191
102561,0.005705102934114153
102562,0.008273633840571426
102563,0.00823974609375
102564,0.007968461695663313
102565,0.00823974609375
102566,0.005645751953125
102567,0.005560957737886407
102568,0.003111102429871896
102569,0.00335693359375
102570,0.0010087724351740472
102571,0.0008222813432423765
102572,-0.001407196944189981
102573,-0.004119873046875
102574,-0.004060533884015934
102575,-0.0039418582855798075
102576,-0.0041537862481370235
102577,-0.00421312450192294
102578,-0.004060537520391942
102579,-0.004060538429468883
102580,-0.004179206755187115
102581,-0.00402661795547854
102582,-0.003907953266108829
102583,-0.0040266161372971695
102584,-0.004179203118845228
102585,-0.004001214721122548
102586,-0.004213132683707349
102587,-0.004119873046875
102588,-0.00396728515625
102589,-0.004026610682784339
102590,-0.003933346500505674
102591,-0.0042724609375
102592,-0.005764397551663788
102593,-0.006374747295975784
102594,-0.00879077667515155
102595,-0.010460668959892795
102596,-0.011350823069170875
102597,-0.013698958773292011
102598,-0.013885498046875
102599,-0.011562724668200124
102600,-0.01135081943281856
102601,-0.011418735835045041
102602,-0.011300111145511918
102603,-0.009095960638196385
102604,-0.008731473875796654
102605,-0.00640869140625
102606,-0.009061995618924098
102607,-0.009061994709836728
102608,-0.009036656929764549
102609,-0.009095966092709216
102610,-0.008790791220553217
102611,-0.009189250274898579
102612,-0.009061990164400839
102613,-0.007578748061908978
102614,-0.0066205820962298954
102615,-0.006561279296875
102616,-0.009095972456322678
102617,-0.009282549002480149
102618,-0.00885009765625
102619,-0.008909395910169007
102620,-0.008977381403024984
102621,-0.00885009765625
102622,-0.009061981073529062
102623,-0.011410093141370118
102624,-0.011410091323216236
102625,-0.00992692467492942
102626,-0.00885009765625
102627,-0.008977400493845482
102628,-0.008909387728384602
102629,-0.00885009765625
102630,-0.009002685546875
102631,-0.009036698747747427
102632,-0.008697509765625
102633,-0.008909383182948713
102634,-0.006442710061652319
102635,-0.006561279296875
102636,-0.006866455078125
102637,-0.006654585297153605
102638,-0.006527253368775652
102639,-0.009061965619050451
102640,-0.00897743594825565
102641,-0.011444091796875
102642,-0.011715234377321013
102643,-0.013698875137278875
102644,-0.011444091796875
102645,-0.009061960164520561
102646,-0.0049508934469755204
102647,-1.7623567753821093e-05
102648,0.005696207514221297
102649,0.011986351503339697
102650,0.016928430439173362
102651,0.02177718882942912
102652,0.023371164137116186
102653,0.0250244140625
102654,0.025566655587221144
102655,0.02777099609375
102656,0.027889525329109564
102657,0.03018719910861766
102658,0.028508735038993364
102659,0.02503328039167582
102660,0.018963835240129158
102661,0.011698882925911641
102662,0.004374669630475654
102663,-0.0015510657778239722
102664,-0.006518317039852634
102665,-0.012901820665414782
102666,-0.016165418259040023
102667,-0.020285286760445012
102668,-0.023439281447619566
102669,-0.027151732747715294
102670,-0.028627271547050942
102671,-0.02849984961899423
102672,-0.028474685474596886
102673,-0.02630436635069455
102674,-0.02603328104276783
102675,-0.02603328195186183
102676,-0.026092529296875
102677,-0.025880695879407774
102678,-0.02612662795198268
102679,-0.023778567702111154
102680,-0.023625982538768162
102681,-0.023719331266123647
102682,-0.025999182387656337
102683,-0.026176901695541085
102684,-0.02840647725533118
102685,-0.02844058591039139
102686,-0.02862728609243555
102687,-0.026126644315559104
102688,-0.025762234825589352
102689,-0.023651123046875
102690,-0.023744477228794497
102691,-0.021489782069864318
102692,-0.020913557344202208
102693,-0.018674953637700994
102694,-0.01880243829277277
102695,-0.017463278659421547
102696,-0.016115088152057328
102697,-0.01346186757542766
102698,-0.0115966796875
102699,-0.010587789980052727
102700,-0.012960918011043623
102701,-0.017902949674415698
102702,-0.030160136486578375
102703,-0.044774418968109055
102704,-0.0572364631644347
102705,-0.06715466878230769
102706,-0.0751916805141418
102707,-0.08141363082940757
102708,-0.08487302038783834
102709,-0.0823473381024143
102710,-0.06937051045647301
102711,-0.03910116287974478
102712,0.010378278371384185
102713,0.0725316063276593
102714,0.14903500021838448
102715,0.24325679662291286
102716,0.3410906013868741
102717,0.4283572373013069
102718,0.4879804754136682
102719,0.5061932405483092
102720,0.4868694391346351
102721,0.4388408725357268
102722,0.37745053312381754
102723,0.3100158927042351
102724,0.24163155174085818
102725,0.16856702718574315
102726,0.0974361096450026
102727,0.028354701699616444
102728,-0.03546117887311386
102729,-0.09223301324093273
102730,-0.13693459825011356
102731,-0.16869123761073693
102732,-0.19047048673502193
102733,-0.1996441555554639
102734,-0.19816168344996832
102735,-0.1883802851782838
102736,-0.16973958746767048
102737,-0.1485640920528295
102738,-0.12574434122287337
102739,-0.10531333442364665
102740,-0.0887996444905908
102741,-0.07808429076472126
102742,-0.06871725300047167
102743,-0.061172023595899586
102744,-0.055330219678887335
102745,-0.051431376377406676
102746,-0.04825199572849155
102747,-0.04590399729658183
102748,-0.0433349609375
102749,-0.0408935546875
102750,-0.038358739710332775
102751,-0.03663037825934582
102752,-0.03558721171567633
102753,-0.033416748046875
102754,-0.03082275390625
102755,-0.031102993724028003
102756,-0.028593109255819947
102757,-0.028474762747024054
102758,-0.02835641987455299
102759,-0.026185946205819998
102760,-0.026033359224278557
102761,-0.024728568244954712
102762,-0.023557703410665057
102763,-0.021303137342161885
102764,-0.02105712890625
102765,-0.021209716796875
102766,-0.01886173381942683
102767,-0.0189208984375
102768,-0.01873404825605445
102769,-0.01706494596820033
102770,-0.01626774331515033
102771,-0.01636117204222544
102772,-0.0164794921875
102773,-0.016326904296875
102774,-0.016302020151382993
102775,-0.01617431640625
102776,-0.01769079716725696
102777,-0.01855656803814261
102778,-0.017429300003814104
102779,-0.016326904296875
102780,-0.016326904296875
102781,-0.014657858372422485
102782,-0.014003798192218002
102783,-0.014003796374064119
102784,-0.011690119323624442
102785,-0.011537532342082997
102786,-0.011350650342579614
102787,-0.00992766103569694
102788,-0.009002685546875
102789,-0.00909612972843533
102790,-0.0091552734375
102791,-0.011325808015087549
102792,-0.012901358849073894
102793,-0.01373291015625
102794,-0.01409722510112878
102795,-0.013826359792329773
102796,-0.013919811246584327
102797,-0.01412204379233034
102798,-0.016326904296875
102799,-0.016513810841739217
102800,-0.01611518269714066
102801,-0.016233449206271948
102802,-0.01633642062348527
102803,-0.016326904296875
102804,-0.0164794921875
102805,-0.01638603346054845
102806,-0.01617431640625
102807,-0.016208649605890885
102808,-0.016267777860459885
102809,-0.01617431640625
102810,-0.016233441024487563
102811,-0.01623344011540017
102812,-0.01617431640625
102813,-0.016445148078799335
102814,-0.0164794921875
102815,-0.016233436479034614
102816,-0.016031308478388896
102817,-0.013683376409880686
102818,-0.011241975614342333
102819,-0.009027446965546828
102820,-0.00903704238280255
102821,-0.006654752569238667
102822,-0.006586032533751992
102823,-0.006526917006430778
102824,-0.006595643405507226
102825,-0.00640869140625
102826,-0.004178983119700444
102827,-0.0038394368661943254
102828,-0.004119873046875
102829,-0.003942551010193505
102830,-0.004119873046875
102831,-0.00557699828143322
102832,-0.006645109879432212
102833,-0.008756613474843612
102834,-0.009145611656873049
102835,-0.011316221688748181
102836,-0.011350604888203667
102837,-0.011537579614640336
102838,-0.012723894085657723
102839,-0.01394459630156372
102840,-0.013826400701269828
102841,-0.01373291015625
102842,-0.013860799355228673
102843,-0.013860802082459498
102844,-0.013919898518994335
102845,-0.014072488227786433
102846,-0.01379200204733189
102847,-0.013885498046875
102848,-0.016326904296875
102849,-0.016420403023683056
102850,-0.018640399529825186
102851,-0.018674810001896
102852,-0.020225359418082994
102853,-0.021268802324350057
102854,-0.021455807959743944
102855,-0.023897215118827492
102856,-0.025108157372715444
102857,-0.02603344740575889
102858,-0.02593994140625
102859,-0.026210689442765334
102860,-0.027889154421473238
102861,-0.028346916275173446
102862,-0.02855857969329066
102863,-0.028602805581711882
102864,-0.02866188474559717
102865,-0.028533935546875
102866,-0.028627449728161666
102867,-0.028568377837011338
102868,-0.0286865234375
102869,-0.027076948493581447
102870,-0.026161424786165628
102871,-0.0262451171875
102872,-0.025999009661058444
102873,-0.026033461951143498
102874,-0.0245764939886875
102875,-0.02361666621135791
102876,-0.021396763341191886
102877,-0.021278637740634782
102878,-0.0189208984375
102879,-0.01870924865567339
102880,-0.01712430967638887
102881,-0.016198908734717004
102882,-0.013919967609626669
102883,-0.011478563177780551
102884,-0.007452222493952833
102885,-0.004119873046875
102886,-0.0001379073417417679
102887,0.003347030905056174
102888,0.007137150387597671
102889,0.010951845835034668
102890,0.014579469283693327
102891,0.016833798080350976
102892,0.017887270947633427
102893,0.01995452410919177
102894,0.02048126872462123
102895,0.0225830078125
102896,0.02270110068591188
102897,0.022523962284877602
102898,0.022701097049569994
102899,0.024345061556513982
102900,0.025388632644114055
102901,0.025177001953125
102902,0.02289815446406745
102903,0.02264204788559911
102904,0.022592987773724465
102905,0.020328700833893668
102906,0.018802823745831674
102907,0.017523086002248136
102908,0.01547041248078822
102909,0.015248786374096091
102910,0.015682032262734555
102911,0.01293544841329655
102912,0.013088034485754466
102913,0.010750204196090674
102914,0.01068115234375
102915,0.008392333984375
102916,0.008028129948162615
102917,0.006384197259238465
102918,0.0054931640625
102919,0.00570477748082244
102920,0.0031107824311204994
102921,0.0015604193778220054
102922,0.0008565045433070434
102923,0.0010436374509333382
102924,0.0007974853792268962
102925,0.0009745474169346105
102926,0.0007874090547718256
102927,0.0029581881768820685
102928,0.003450504138455335
102929,0.003110774249325663
102930,0.005458607227372444
102931,0.00589191311572028
102932,0.00579833984375
102933,0.0054586017728425525
102934,0.005739327952360225
102935,0.0054931640625
102936,0.005399586245093831
102937,0.005611182390770584
102938,0.005832911224279224
102939,0.005891920388421114
102940,0.0055277390793711115
102941,0.0034260872638682306
102942,0.003120915118952385
102943,0.003017177341098998
102944,0.003204345703125
102945,0.0030171737047571113
102946,0.0008219404354720537
102947,0.001068115234375
102948,0.0006103515625
102949,0.0022542269789142164
102950,0.0030863510111146662
102951,0.00332233857694733
102952,0.003263341230952627
102953,0.0034993187968261077
102954,0.0054931640625
102955,0.003204345703125
102956,0.0030619741363736193
102957,0.0008219304355167391
102958,0.0006693416358043328
102959,-0.0018310546875
102960,-0.001560490286608221
102961,-0.003908297810210613
102962,-0.004178859483830851
102963,-0.004060887519006556
102964,-0.002358055665527232
102965,-0.0017720709778024993
102966,-0.0016194839962715012
102967,-0.0016194849053550373
102968,-0.0014079169413848893
102969,0.0009501550877320146
102970,0.0007385898510163459
102971,-0.00152587890625
102972,-0.0016194894508079862
102973,-0.001491243889584212
102974,-0.001806715994468188
102975,-0.0014322656344336626
102976,-0.001678466796875
102977,-0.0017720818868688743
102978,-0.0013836073391564137
102979,0.0009744983261997152
102980,0.0008565572703772261
102981,-0.0013386414535575437
102982,-0.0016194985416797627
102983,-0.0016194994507671716
102984,-0.004119873046875
102985,-0.003908319628313115
102986,-0.002451758937035584
102987,-0.0014912184351436983
102988,-0.0016195039962030601
102989,-0.0016438026894058755
102990,-0.0017131327224980072
102991,-0.0015015865766540167
102992,0.000762939453125
102993,0.0007039811978889489
102994,0.000856569997607951
102995,0.000762939453125
102996,0.0007039839251538943
102997,0.0008461700380502908
102998,-0.0013386105446003247
102999,-0.001220703125
103000,-0.001702734581137657
103001,-0.001373291015625
103002,-0.0013143409421733155
103003,0.0006103515625
103004,0.0009502187238344567
103005,0.0007039921069316698
103006,0.0008218858902243282
103007,0.0005861028690776111
103008,-0.00152587890625
103009,-0.0032875326518375316
103010,-0.00396728515625
103011,-0.004119873046875
103012,-0.004390342902659816
103013,-0.006620219370367496
103014,-0.006467630570658965
103015,-0.006561279296875
103016,-0.006561279296875
103017,-0.006526564280551219
103018,-0.0065023437688183925
103019,-0.006561279296875
103020,-0.00640869140625
103021,-0.006596001585916676
103022,-0.006561279296875
103023,-0.006502348314254281
103024,-0.006502349223337812
103025,-0.006561279296875
103026,-0.006467619661605774
103027,-0.004331388283778832
103028,-0.00408513803061966
103029,-0.0042966496311789
103030,-0.006561279296875
103031,-0.00640869140625
103032,-0.0063150263164679435
103033,-0.006349769514501059
103034,-0.003943110098878764
103035,-0.0041787931204529975
103036,-0.0026287437022820084
103037,-0.003849448645435891
103038,-0.004095708898560842
103039,-0.004026201593479523
103040,-0.00634977587810789
103041,-0.006654952568451893
103042,-0.006561279296875
103043,-0.006502366495997836
103044,-0.006679103080462271
103045,-0.006596045222087559
103046,-0.006596047040275563
103047,-0.006679097625911433
103048,-0.00885009765625
103049,-0.006748640385443627
103050,-0.00640869140625
103051,-0.006526502462568538
103052,-0.006467596025332327
103053,-0.004307241408148348
103054,-0.004237678648684597
103055,-0.00396728515625
103056,-0.004026186138973381
103057,-0.00396728515625
103058,-0.004002074717770126
103059,-0.00399139203203173
103060,-0.003814697265625
103061,-0.004060976609587508
103062,-0.004026180684460551
103063,-0.004026179775366548
103064,-0.00396728515625
103065,-0.004026177957195605
103066,-0.004060981155023397
103067,-0.003908394173475338
103068,-0.004095790716458022
103069,-0.004237651376069268
103070,-0.004119873046875
103071,-0.00396728515625
103072,-0.006256103515625
103073,-0.0067138671875
103074,-0.006654982568338755
103075,-0.006585342536471482
103076,-0.0067727499884798256
103077,-0.006502397404972116
103078,-0.006620160279683882
103079,-0.006502399223149643
103080,-0.006737916790788816
103081,-0.009002685546875
103082,-0.008908975002716995
103083,-0.0091552734375
103084,-0.006349815877960531
103085,-0.0064435300584709
103086,-0.0042724609375
103087,-0.003932442867687213
103088,-0.004095845261688686
103089,-0.001560724831167838
103090,-0.0017721846137338387
103091,-0.0014910293449693184
103092,-0.00152587890625
103093,-0.003932431958627432
103094,-0.0037558308282073074
103095,-0.00396728515625
103096,-0.00650241467763873
103097,-0.006197239805465671
103098,-0.006561279296875
103099,-0.006537281511554587
103100,-0.006502418313980616
103101,-0.008908957730050382
103102,-0.00881522809507188
103103,-0.009037556926241122
103104,-0.00897870139786225
103105,-0.00893293551545898
103106,-0.008908953184614493
103107,-0.008791243036962448
103108,-0.00890895136644355
103109,-0.008943832745764971
103110,-0.009859360998602395
103111,-0.008721474823785814
103112,-0.0091552734375
103113,-0.00848607271024234
103114,-0.0064784741648034406
103115,-0.006256103515625
103116,-0.004002180171889569
103117,-0.003908439627834226
103118,-0.004119873046875
103119,-0.004061029336636749
103120,-0.0040849707585516575
103121,-0.004178714938931826
103122,-0.004237555012834771
103123,-0.004026125230135884
103124,-0.004084963485854727
103125,-0.001373291015625
103126,-0.0016196294502711225
103127,-0.0033110249845635527
103128,-0.00396728515625
103129,-0.004026119775599414
103130,-0.00396728515625
103131,-0.003932362867960977
103132,-0.004119873046875
103133,-0.00152587890625
103134,-0.0016196367229614737
103135,-0.001807155083646694
103136,-0.0016196385411428999
103137,-0.001349396866284524
103138,0.0010092887968138433
103139,0.0010442265395670858
103140,0.003204345703125
103141,0.0032392861731575773
103142,0.00299293501128073
103143,0.0030517578125
103144,0.0031105787955483266
103145,0.001713414539591351
103146,0.00091552734375
103147,0.0006453029415582376
103148,0.00091552734375
103149,0.0004688572650628107
103150,-0.0017372823253934359
103151,-0.0014670642868150816
103152,-0.0017372805072224924
103153,-0.0016196539956215095
103154,-0.0017134309031469018
103155,-0.00152587890625
103156,0.0007279717104980606
103157,0.0008217486180366037
103158,0.0006691598183176017
103159,-0.0007279662559813208
103160,-0.001678466796875
103161,-0.0015020502111855738
103162,-0.001467074286774285
103163,-0.001678466796875
103164,-0.0014320938169297716
103165,-0.00010495231861038195
103166,0.0008917122849932384
103167,0.0011269153084148263
103168,0.0028641803611416487
103169,0.004777838363338297
103170,0.00579833984375
103171,0.008028361765433634
103172,0.006572477435105312
103173,0.005610753301519871
103174,0.004119873046875
103175,0.0031693434151779843
103176,0.0028753821357335677
103177,0.00091552734375
103178,0.0008217295271990469
103179,0.0007041502881278945
103180,-0.00152587890625
103181,-0.0015846662530695891
103182,-0.0017610246571786404
103183,-0.004084856213526316
103184,-0.0037796786141224333
103185,-0.003908501445782786
103186,-0.004213678136116299
103187,-0.0042136790452037285
103188,-0.0040961179878931915
103189,-0.0040961207151240155
103190,-0.00396728515625
103191,-0.004143619924093438
103192,-0.006561279296875
103193,-0.007982053157848284
103194,-0.008721248461068318
103195,-0.011162651983786312
103196,-0.011620412928410774
103197,-0.013510237690072976
103198,-0.016021728515625
103199,-0.01638567528012855
103200,-0.017970323351444096
103201,-0.0189208984375
103202,-0.01861572265625
103203,-0.017253770687401984
103204,-0.0162681378590744
103205,-0.012335910445130202
103206,-0.0063612794697614754
103207,0.002042406288660656
103208,0.008193322031966576
103209,0.015587662630219138
103210,0.023029400619478554
103211,0.028945256066185393
103212,0.03399203004894953
103213,0.034848797318505764
103214,0.030716628258998235
103215,0.02375634809174107
103216,0.0138144619599882
103217,0.006795427173025095
103218,-0.0008339591763788874
103219,-0.00798191134020761
103220,-0.012958554383869666
103221,-0.01604539357494627
103222,-0.01849822250779402
103223,-0.0215271222273219
103224,-0.025259407086728185
103225,-0.02754822180972718
103226,-0.028592681984754533
103227,-0.028346250823209202
103228,-0.0262100185362712
103229,-0.025822453985007685
103230,-0.023744968135972846
103231,-0.0213623046875
103232,-0.021397410611412575
103233,-0.02105712890625
103234,-0.02111586807143527
103235,-0.023463423777807534
103236,-0.02374497359049224
103237,-0.023862447375420322
103238,-0.02389756329929868
103239,-0.02378009496887686
103240,-0.02238319343919273
103241,-0.02115098399530313
103242,-0.021456160685640564
103243,-0.021244842720719134
103244,-0.021244844538873018
103245,-0.021233316401908467
103246,-0.021033532028467056
103247,-0.018674450003298548
103248,-0.018674449094204543
103249,-0.018768310546875
103250,-0.0187447245781492
103251,-0.016233040116950093
103252,-0.016056870803024686
103253,-0.013791632048768656
103254,-0.012089589283116571
103255,-0.011772839910543136
103256,-0.013873918091946026
103257,-0.018909313937133843
103258,-0.027442642220827665
103259,-0.040201299504552424
103260,-0.05210314679145641
103261,-0.06415758196907985
103262,-0.07411094714706117
103263,-0.0874331882964094
103264,-0.09865403702340475
103265,-0.10178774391074533
103266,-0.09085983889157871
103267,-0.058945165904310294
103268,-0.01414279643925549
103269,0.043559175518926914
103270,0.12466577208899857
103271,0.22174700887459128
103272,0.3186987225267959
103273,0.3958725271403867
103274,0.438432247763515
103275,0.4431737511168751
103276,0.41512075854529745
103277,0.36939128632693
103278,0.3139665809552154
103279,0.24906976186490104
103280,0.18071044050144716
103281,0.1096749271346214
103282,0.04121001891062494
103283,-0.022923744666713017
103284,-0.08022626636193216
103285,-0.12255170062474424
103286,-0.15278750924137918
103287,-0.17069892282231064
103288,-0.17541738414428912
103289,-0.17116838402464224
103290,-0.15525229964324969
103291,-0.13527504047092023
103292,-0.1109548994235048
103293,-0.08770287542840038
103294,-0.0669626574091243
103295,-0.05175080937593959
103296,-0.0416447953983672
103297,-0.03358110225538701
103298,-0.028780430344535906
103299,-0.02570522110824338
103300,-0.023615893487065307
103301,-0.021397536065463577
103302,-0.02117448360072342
103303,-0.021244951811193586
103304,-0.018580485823756532
103305,-0.01865096130693147
103306,-0.018310546875
103307,-0.01611564360444918
103308,-0.01651473629269036
103309,-0.016326904296875
103310,-0.016326904296875
103311,-0.016362153856582132
103312,-0.016197733284719795
103313,-0.016150902255030707
103314,-0.016139061392012977
103315,-0.016362161129300026
103316,-0.01636216294745391
103317,-0.013885498046875
103318,-0.01373291015625
103319,-0.0115380177947419
103320,-0.011655340671164098
103321,-0.01129150390625
103322,-0.009096614272006845
103323,-0.008944027290465345
103324,-0.006655209840177789
103325,-0.006655210749271791
103326,-0.006561279296875
103327,-0.006256103515625
103328,-0.006561279296875
103329,-0.006443973693102355
103330,-0.006432059194001961
103331,-0.006502628313159621
103332,-0.004155160788257246
103333,-0.003756048100087122
103334,-0.001678466796875
103335,-0.0014552925144257266
103336,-0.003744107237492961
103337,-0.004307757769754023
103338,-0.00406122842677301
103339,-0.0038380405080436345
103340,-0.004178515848795543
103341,-0.006502637404031398
103342,-0.0066199202806246
103343,-0.006467331480916102
103344,-0.005047380343981719
103345,-0.004155184424530692
103346,-0.0038733346130327127
103347,-0.004096551622558868
103348,-0.003931968324085427
103349,-0.002723266061446698
103350,-0.0018776811725425926
103351,-0.004084550760193648
103352,-0.004061241153997178
103353,-0.004249155876742025
103354,-0.006561279296875
103355,-0.006843155471911369
103356,-0.006901786455678129
103357,-0.0063621031028484
103358,-0.003873323703983437
103359,-0.00251207991416604
103360,-0.001877626627311928
103361,-0.0042724609375
103362,-0.004190557620169064
103363,-0.003931941051435977
103364,-0.004025906140068041
103365,-0.003931937415073077
103366,-0.004119873046875
103367,-0.0018310546875
103368,-0.0039319319605642
103369,-0.004213844499117848
103370,-0.00387331279491315
103371,-0.0042724609375
103372,-0.0017724409763827935
103373,-0.003227596218601135
103374,-0.004119873046875
103375,-0.004119873046875
103376,-0.00417848312165032
103377,-0.004084503487612636
103378,-0.00396728515625
103379,-0.004119873046875
103380,-0.002606137729793138
103381,-0.001584484435589431
103382,-0.003626730724865858
103383,-0.00396728515625
103384,-0.006279324031223457
103385,-0.0067138671875
103386,-0.006619880280778543
103387,-0.00640869140625
103388,-0.00640869140625
103389,-0.006596670674222806
103390,-0.008145755550669594
103391,-0.008944089108407346
103392,-0.009096677908126348
103393,-0.010399172532745476
103394,-0.011655273398702709
103395,-0.011444091796875
103396,-0.011467279585345295
103397,-0.01129150390625
103398,-0.011350093981104271
103399,-0.011373272678692278
103400,-0.0115966796875
103401,-0.011538092339904124
103402,-0.01129150390625
103403,-0.011573510989850202
103404,-0.011408673146911862
103405,-0.013697489688119879
103406,-0.013885498046875
103407,-0.013979504044434014
103408,-0.01539910609182022
103409,-0.01638548437177004
103410,-0.01901490716231345
103411,-0.0186743009129741
103412,-0.018826887894505095
103413,-0.01849856977914369
103414,-0.0201416015625
103415,-0.02105712890625
103416,-0.02126829050816321
103417,-0.023404520067819207
103418,-0.023745139044382732
103419,-0.02383915686007847
103420,-0.024014868903064774
103421,-0.023580223929034284
103422,-0.023745142680741682
103423,-0.023885392437600513
103424,-0.02593994140625
103425,-0.026127986128492226
103426,-0.026033964676458566
103427,-0.024731595505887848
103428,-0.02343997235400451
103429,-0.023615658942552974
103430,-0.023920832905635996
103431,-0.023557095231230545
103432,-0.0238037109375
103433,-0.021209716796875
103434,-0.021034044753728203
103435,-0.02117424178351422
103436,-0.021151161267330344
103437,-0.02111568352670065
103438,-0.021151163085501287
103439,-0.02105712890625
103440,-0.020904541015625
103441,-0.018557171672158295
103442,-0.016667567818754593
103443,-0.014719416617566951
103444,-0.0115966796875
103445,-0.008768496155901908
103446,-0.00518798828125
103447,-0.002382860720438185
103448,-0.00016504056945063197
103449,0.0006919385174384864
103450,0.002922210438172154
103451,0.003110299705719928
103452,0.0030162518901268526
103453,0.003298393518701015
103454,0.0032398552618400343
103455,0.0030747846924894895
103456,0.0029221940746021187
103457,0.0030517578125
103458,0.0011621675953869038
103459,0.0008109607813663411
103460,-0.00152587890625
103461,-0.0016199339945268492
103462,-0.003074765601637446
103463,-0.004178404031052208
103464,-0.004084345306416411
103465,-0.00664280807024888
103466,-0.009201267197723573
103467,-0.01150261914469326
103468,-0.011642662538697912
103469,-0.013956571709535733
103470,-0.013697371506752664
103471,-0.013826974335398626
103472,-0.01409660873988237
103473,-0.01644394808348586
103474,-0.0164794921875
103475,-0.0164794921875
103476,-0.01617431640625
103477,-0.016515043564232036
103478,-0.01642097483963046
103479,-0.01613876139317608
103480,-0.01617431640625
103481,-0.017781665904293382
103482,-0.01861572265625
103483,-0.018885336151742305
103484,-0.018651286760195698
103485,-0.01869717870264967
103486,-0.01838168235557517
103487,-0.016420983021425296
103488,-0.016385412553872762
103489,-0.01638541164477876
103490,-0.01638541073569528
103491,-0.016349832995448454
103492,-0.016115811785611184
103493,-0.016420988475938127
103494,-0.014755184357067762
103495,-0.01373291015625
103496,-0.012524877891015352
103497,-0.011197416090827928
103498,-0.011421182189122041
103499,-0.011444091796875
103500,-0.0115966796875
103501,-0.011385595358013959
103502,-0.011444091796875
103503,-0.011255905257005195
103504,-0.011444091796875
103505,-0.011538186884987386
103506,-0.008908589549675152
103507,-0.009002685546875
103508,-0.006690984852362373
103509,-0.0067138671875
103510,-0.004025773413326726
103511,-0.004178360394864264
103512,-0.003931670143415523
103513,-0.0038731827954433203
103514,-0.00396728515625
103515,-0.004119873046875
103516,-0.004119873046875
103517,-0.0039088032627906276
103518,-0.003990140218721112
103519,-0.004178353122146369
103520,-0.004213981771312111
103521,-0.004178351303975425
103522,-0.00396728515625
103523,-0.0042724609375
103524,-0.00393164832529596
103525,-0.0038960078580080027
103526,-0.004061399335210463
103527,-0.004249630420413396
103528,-0.004002929259887813
103529,-0.004097047984301226
103530,-0.0036977571149797
103531,-0.0015843480724786478
103532,-0.0014674106491048306
103533,-0.0017725873394422954
103534,-0.0017369332358387025
103535,-0.0014317565455117612
103536,-0.0014674142854572407
103537,-0.001408951482831438
103538,0.0010096524317531842
103539,0.0008214013466528138
103540,0.0007401443903973825
103541,0.00091552734375
103542,-0.001431750181898393
103543,-0.0014902075299968542
103544,-0.0016427936024338502
103545,-0.0016200103578600162
103546,-0.0016200112669540183
103547,-0.0015843335270875048
103548,-0.0017596937532501535
103549,-0.003990055673593109
103550,-0.00393160105278319
103551,-0.006749553109154814
103552,-0.006502829221473384
103553,-0.008885787214246701
103554,-0.011349952163470147
103555,-0.01129150390625
103556,-0.009213719876549203
103557,-0.007548200302012087
103558,-0.006655422566621739
103559,-0.0065969797639314825
103560,-0.009002685546875
103561,-0.011327208009648369
103562,-0.01132720982781532
103563,-0.0115966796875
103564,-0.01150253096322337
103565,-0.011771994459314287
103566,-0.013943935395052428
103567,-0.011632394699937097
103568,-0.011138916015625
103569,-0.013697191507449963
103570,-0.01379134386808554
103571,-0.013827065244133461
103572,-0.013827066153216936
103573,-0.013674479171679405
103574,-0.013921225786546814
103575,-0.013921227604700697
103576,-0.013934263917610453
103577,-0.011502519145097175
103578,-0.01129150390625
103579,-0.011349929436290705
103580,-0.011421405824608712
103581,-0.011538255975630239
103582,-0.011372607226770148
103583,-0.011210404222079732
103584,-0.008639088781020184
103585,-0.009249441252597126
103586,-0.009096854271066128
103587,-0.011008995006426197
103588,-0.011421427642711214
103589,-0.011502508236043927
103590,-0.010927912594908015
103591,-0.00872016573799395
103592,-0.00885009765625
103593,-0.00665545438467296
103594,-0.006619691190608038
103595,-0.00653863423353171
103596,-0.006655457111954966
103597,-0.006291873073326877
103598,-0.00661968755424909
103599,-0.0064444646003148235
103600,-0.006291878527843706
103601,-0.004119873046875
103602,-0.004061468425849327
103603,-0.004025688868188201
103604,-0.0042140581346558
103605,-0.0027239642405732247
103606,-0.0012791041096732565
103607,-0.00152587890625
103608,-0.001467479739747687
103609,-0.001678466796875
103610,0.0003993663235436303
103611,0.0007045430138876323
103612,0.0007761375836055142
103613,-0.0014900802577578487
103614,-0.0016200730849025777
103615,-0.0014090933004590382
103616,0.0009739192375514789
103617,0.0008797214225610178
103618,0.0008797196043860711
103619,0.0006819706776038659
103620,-0.0015484557880037766
103621,-0.00158426625461559
103622,-0.0018668696995607584
103623,0.0007045539229303531
103624,0.0007045548320243552
103625,0.0009513478103275931
103626,0.0007178184167967911
103627,-0.0016200849030287676
103628,-0.001678466796875
103629,-0.0015842589819147562
103630,-0.0013149118490371852
103631,-0.0014900475306126254
103632,-0.0012432472796060328
103633,-0.0015842553455728693
103634,-0.0014900420760827347
103635,-0.001431665636776926
103636,-0.003662109375
103637,-0.0038372277839233684
103638,-0.004308305040351039
103639,-0.004214089952707022
103640,-0.0038730673413410375
103641,-0.00400313471363093
103642,-0.0014091423911728642
103643,-0.0015975852936956324
103644,-0.00152587890625
103645,-0.0017726891572198515
103646,-0.0016201021756888534
103647,-0.0015617393726696407
103648,0.0006103515625
103649,0.0006912112475598047
103650,-0.0016559717329672206
103651,-0.0013149309398747422
103652,-0.0014675197395832085
103653,0.000457763671875
103654,0.000951400537404375
103655,-0.0012431845526001133
103656,-0.0015483576065681074
103657,-0.0015842335274809031
103658,-0.0014675251941065743
103659,-0.00148999662174492
103660,-0.001678466796875
103661,-0.0018669406083680392
103662,0.000727051714103078
103663,0.001009766067667463
103664,0.0007404825708777846
103665,0.0010097678858384063
103666,0.0008212858925675916
103667,0.0004936605017686994
103668,-0.0017727100662283516
103669,-0.0014899784400013672
103670,-0.001736809599975705
103671,-0.0017727127934932972
103672,-0.0015617848270154768
103673,-0.0017727146116642404
103674,-0.0017143763540295306
103675,-0.0015483057885682667
103676,-0.0017727173389462465
103677,-0.0017502968202177513
103678,-0.0017368023272578102
103679,-0.001561797554276307
103680,0.0006686852747118668
103681,0.000762939453125
103682,0.0008571954497090766
103683,0.0006686825474469214
103684,0.0009873828215461668
103685,0.0008571981769740219
103686,0.0006686798201819761
103687,0.0008212668017300348
103688,0.0008572009042389673
103689,0.0007853281537827102
103690,0.0007046148317849106
103691,0.000762939453125
103692,0.000668674365669146
103693,0.000726995350650288
103694,0.0007405643887749545
103695,-0.0016425190580584012
103696,-0.00152587890625
103697,-0.0016425154217165146
103698,-0.0015618320995964895
103699,-0.0014899238947365873
103700,-0.001678466796875
103701,-0.00146756428487569
103702,-0.001678466796875
103703,-0.0016201539936716335
103704,-0.0018670187898851892
103705,-0.0016201558118425767
103706,-0.0016201567209365789
103707,-0.0014316001824864798
103708,-0.001772746429732522
103709,-0.0014092642088819657
103710,-0.001678466796875
103711,-0.00396728515625
103712,-0.00396728515625
103713,-0.004155853512836822
103714,-0.006502976493626871
103715,-0.006619581191035646
103716,-0.006372705485758287
103717,-0.003908985080260298
103718,-0.004061573879979299
103719,-0.0042724609375
103720,-0.003872994614349757
103721,-0.004178169486505755
103722,-0.004061577516321187
103723,-0.005820635817504435
103724,-0.006619573009251352
103725,-0.006561279296875
103726,-0.006561279296875
103727,-0.006466982391367925
103728,-0.006350401330226077
103729,-0.0042141717705595355
103730,-0.0039895620391839385
103731,-0.004214173588741023
103732,-0.004025571595932036
103733,-0.004142141748014102
103734,-0.0027243160573612716
103735,-0.0014315747280420907
103736,-0.0015841617095730888
103737,-0.001714490899007705
103738,-0.001256729045320709
103739,0.0009738074198186879
103740,0.000857248176768798
103741,0.0008212177110122
103742,0.0007851836089307762
103743,0.00091552734375
103744,0.0007851781543983989
103745,0.0008572527222046866
103746,-0.000632584809228934
103747,-0.00158415170962437
103748,0.000574307460435736
103749,0.0008212104383219115
103750,0.0009960197575626985
103751,0.0032403952597191547
103752,0.0033791504769404438
103753,0.0054931640625
103754,0.005645751953125
103755,0.005645751953125
103756,0.00566795792718742
103757,0.0056096914874710635
103758,0.0032404079869669403
103759,0.003204345703125
103760,0.0015397497613970673
103761,0.000799007191496831
103762,0.000762939453125
103763,0.003240417077838718
103764,0.0032986762448778137
103765,0.0031321956810137913
103766,0.0010459365329279127
103767,0.0008572727221362456
103768,0.00091552734375
103769,0.0006686043659362979
103770,0.0007990235550523819
103771,0.000857276358495193
103772,0.0007990271913942686
103773,0.0007407798424984089
103774,0.0008572790857495903
103775,0.0007268462603258407
103776,0.0008572809039310817
103777,0.000973772874491977
103778,-0.001373291015625
103779,-0.00152587890625
103780,-0.001678466796875
103781,-0.0013954288081490889
103782,-0.0040033910762628236
103783,-0.004214220861287914
103784,-0.00396728515625
103785,-0.0057261170946645715
103786,-0.006430815562466423
103787,-0.006386569977264401
103788,-0.009213508968276198
103789,-0.009002685546875
103790,-0.009060919259480254
103791,-0.008944452743353199
103792,-0.007418574746190689
103793,-0.004896833354548456
103794,3.0179276397041726e-05
103795,0.006910654299891192
103796,0.013224980619101396
103797,0.01982238674499211
103798,0.02692174303726478
103799,0.03455112938682231
103800,0.03969493753707543
103801,0.041786998783924924
103802,0.0380807310960622
103803,0.030850886524064685
103804,0.02134022962195023
103805,0.014008016660726532
103806,0.004533497496715177
103807,-0.0007709218462631569
103808,-0.006394602370163213
103809,-0.010608842322322804
103810,-0.0133915775460984
103811,-0.016116101784471752
103812,-0.01905937911032878
103813,-0.021245879080306493
103814,-0.023614958945289626
103815,-0.02145668159269919
103816,-0.01987259351919028
103817,-0.016282825074595796
103818,-0.01224320262430327
103819,-0.009097066088416076
103820,-0.008769859786915312
103821,-0.006597456125687055
103822,-0.006619483918693978
103823,-0.008014797272774906
103824,-0.00888627993957893
103825,-0.009060887441429032
103826,-0.008661323845941168
103827,-0.00894448547049191
103828,-0.008813908100203176
103829,-0.009002685546875
103830,-0.009097076088381856
103831,-0.00911907842691027
103832,-0.008806100251919158
103833,-0.006561279296875
103834,-0.004403055580472409
103835,-0.0025720036202544153
103836,-0.001678466796875
103837,-0.001678466796875
103838,-0.0014896711684254992
103839,-0.00152587890625
103840,-0.0014896675320836125
103841,-0.00010863957699984585
103842,0.000762939453125
103843,0.000762939453125
103844,-0.0016202821749875804
103845,-0.005667715200880253
103846,-0.013224662438469795
103847,-0.024254899786342165
103848,-0.0389395513876882
103849,-0.051793151938063775
103850,-0.06484324323814787
103851,-0.07825668130518348
103852,-0.09492497821198537
103853,-0.10825063874208325
103854,-0.11394691746828128
103855,-0.10684679814892728
103856,-0.06867028712287639
103857,-0.02125841933496586
103858,0.045365179090686936
103859,0.13574860195936952
103860,0.23747407641496762
103861,0.33454096325609106
103862,0.40325520414710153
103863,0.43593683960237045
103864,0.43230261345241044
103865,0.39995322397655536
103866,0.3542856681833862
103867,0.2989325652603158
103868,0.23657478476748947
103869,0.17030789373939645
103870,0.1041792306587976
103871,0.037411467036037455
103872,-0.025396537461469554
103873,-0.07551035957561211
103874,-0.11385305177315509
103875,-0.13938587627990245
103876,-0.15446270271781784
103877,-0.15787031217486786
103878,-0.14937607889044488
103879,-0.13311428767327604
103880,-0.11188272126467948
103881,-0.08894385180758495
103882,-0.06694934776389619
103883,-0.05007768801272749
103884,-0.03701328676814721
103885,-0.027175083565968462
103886,-0.02116601393678781
103887,-0.016246910062958544
103888,-0.011407793150332725
103889,-0.00875565347858942
103890,-0.006619422100745419
103891,-0.0048609747062640695
103892,-0.004061732061175524
103893,-0.0018092223483085791
103894,-0.0016421572413070644
103895,0.0008792159699940605
103896,0.0007048021037739114
103897,0.003509521484375
103898,0.0035458383126608303
103899,0.0032624803252176435
103900,0.0030517578125
103901,0.0031462128992097997
103902,0.004788356504202698
103903,0.005645751953125
103904,0.005609424215813509
103905,0.007157100915938764
103906,0.008297874352229312
103907,0.008145285552516809
103908,0.010739278784047807
103909,0.010797403406191732
103910,0.01312255859375
103911,0.01467022074845409
103912,0.015411376953125
103913,0.015411376953125
103914,0.015832794705910834
103915,0.017910903279798916
103916,0.019611138779762893
103917,0.020504895602252972
103918,0.02019971891191953
103919,0.02044677734375
103920,0.020374063687452103
103921,0.020236074830963915
103922,0.020294189453125
103923,0.020236076649141357
103924,0.02044677734375
103925,0.02046852241053141
103926,0.02025782171595039
103927,0.020577625622106417
103928,0.018157958984375
103929,0.01779467585366475
103930,0.017874514633598744
103931,0.0177001953125
103932,0.015716552734375
103933,0.015374996488723735
103934,0.015411376953125
103935,0.01395826624840356
103936,0.013064457607896582
103937,0.011364279380462335
103938,0.010550274065527937
103939,0.009133566552359581
103940,0.008087158203125
103941,0.006692165756872411
103942,0.005682148781102945
103943,0.003451426862134909
103944,0.0032988398805974158
103945,0.0033205313112421647
103946,0.003240749803786718
103947,0.0009372124107879168
103948,0.00091552734375
103949,0.0007048502854083044
103950,-0.00152587890625
103951,-0.0016056404138080089
103952,-0.00396728515625
103953,-0.004025370687618314
103954,-0.0038363632418424204
103955,-0.005514827311435415
103956,-0.006561279296875
103957,-0.008087158203125
103958,-0.008944604560942574
103959,-0.009002685546875
103960,-0.00887174726887775
103961,-0.010586642711798974
103962,-0.011327937097715055
103963,-0.011196992456121537
103964,-0.011538604156090971
103965,-0.011386017174559972
103966,-0.01129150390625
103967,-0.011465722318682252
103968,-0.01344936216955695
103969,-0.01394356903284814
103970,-0.016058176252491722
103971,-0.0164794921875
103972,-0.018768310546875
103973,-0.01861572265625
103974,-0.01867378909678725
103975,-0.018768310546875
103976,-0.021078734882723927
103977,-0.021209716796875
103978,-0.021325842405252746
103979,-0.021020664805827725
103980,-0.022909778661147084
103981,-0.02370918312380542
103982,-0.023956298828125
103983,-0.0262451171875
103984,-0.026223533029128575
103985,-0.025997997846821472
103986,-0.026129006124510936
103987,-0.026056050651051058
103988,-0.026150583010175036
103989,-0.02590345912405005
103990,-0.026034477401756476
103991,-0.026114094364374747
103992,-0.02603447921992742
103993,-0.025903451851353294
103994,-0.026092529296875
103995,-0.02760346917028817
103996,-0.028744569878105693
103997,-0.028250308469535072
103998,-0.030975341796875
103999,-0.03105492875961299
104000,-0.03351129313325325
104001,-0.0356110204107948
104002,-0.03761619714742821
104003,-0.03820501273324237
104004,-0.04064641807415486
104005,-0.04230989947474014
104006,-0.04342951147839109
104007,-0.04463522193443466
104008,-0.04558726246936297
104009,-0.04568181391934397
104010,-0.04802866508299994
104011,-0.048275806241798024
104012,-0.04581289128771695
104013,-0.045565748310754405
104014,-0.047323748434224246
104015,-0.04831233216018592
104016,-0.048123213805737135
104017,-0.050506591796875
104018,-0.05052808322830412
104019,-0.050513032377777545
104020,-0.0531005859375
104021,-0.052947998046875
104022,-0.052911455764914496
104023,-0.05304256404225118
104024,-0.05058608785089522
104025,-0.05063770734692309
104026,-0.048348891714778915
104027,-0.0482177734375
104028,-0.046517842481811206
104029,-0.04566033430604917
104030,-0.04321892987423717
104031,-0.040835540064945525
104032,-0.04050891194303312
104033,-0.038299560546875
104034,-0.03826299644682905
104035,-0.0356261103520929
104036,-0.035494968438506413
104037,-0.03353276638292416
104038,-0.031164501060242693
104039,-0.030938768605957276
104040,-0.030975341796875
104041,-0.03068531413846153
104042,-0.028475930924286307
104043,-0.028570516010489468
104044,-0.02874452624191775
104045,-0.0286865234375
104046,-0.028591936533121805
104047,-0.028765935855486216
104048,-0.031069930519424138
104049,-0.0308075694199093
104050,-0.030975341796875
104051,-0.03332215659706092
104052,-0.03351134040578309
104053,-0.033227561510904946
104054,-0.033395354796862085
104055,-0.03380130715535019
104056,-0.03570556640625
104057,-0.03612672416006205
104058,-0.037179612181053596
104059,-0.038299560546875
104060,-0.038204960915276656
104061,-0.03866272367806414
104062,-0.038241574106029866
104063,-0.038546750796356805
104064,-0.038394163814825806
104065,-0.0384521484375
104066,-0.03678894339944405
104067,-0.035858154296875
104068,-0.033380122128880495
104069,-0.033416748046875
104070,-0.03320618098811218
104071,-0.030859385278774396
104072,-0.030975341796875
104073,-0.03103331823775436
104074,-0.031069954155714643
104075,-0.031091291042278865
104076,-0.031106596437281763
104077,-0.03070680829720918
104078,-0.02847596365143153
104079,-0.02859190653322447
104080,-0.026150499374141045
104081,-0.028628554269321475
104082,-0.02907098436446309
104083,-0.030691480175022743
104084,-0.03091737535596142
104085,-0.030859410733214687
104086,-0.031185894310242636
104087,-0.030880717619898634
104088,-0.031012004078356616
104089,-0.02857059964654462
104090,-0.026129195214711465
104091,-0.023287987188318253
104092,-0.02113046801464902
104093,-0.01844184787884259
104094,-0.016247662787332796
104095,-0.01394345448783338
104096,-0.011254827079366715
104097,-0.009097318814723145
104098,-0.008828824405775256
104099,-0.006198150711019088
104100,-0.006582547092817474
104101,-0.0068085040916900305
104102,-0.006161465702340967
104103,-0.006256103515625
104104,-0.0042145126783299765
104105,-0.004046486665971414
104106,-0.00396728515625
104107,-0.001678466796875
104108,-0.001467934283421863
104109,-0.00152587890625
104110,-0.001678466796875
104111,-0.003946047360185425
104112,-0.006561279296875
104113,-0.009060625624267248
104114,-0.009002685546875
104115,-0.01129150390625
104116,-0.011654617037627303
104117,-0.011654616128533302
104118,-0.013922214873587281
104119,-0.013885498046875
104120,-0.015280002313211817
104121,-0.016326904296875
104122,-0.014227397927555176
104123,-0.013711705087313588
104124,-0.013617050001397062
104125,-0.011465291411279152
104126,-0.01129150390625
104127,-0.00959184294951543
104128,-0.009039420555330836
104129,-0.00669267848215326
104130,-0.0066192039197821625
104131,-0.00658246254770891
104132,-0.006582459820426904
104133,-0.00640869140625
104134,-0.006445437323765618
104135,-0.006561279296875
104136,-0.0067138671875
104137,-0.006234936628380762
104138,-0.0038726146158378047
104139,-0.006314019956743803
104140,-0.006561279296875
104141,-0.006451003362687156
104142,-0.0091552734375
104143,-0.010491802172053831
104144,-0.011617827483923742
104145,-0.01373291015625
104146,-0.01549042937247964
104147,-0.017837153263879538
104148,-0.021251990571568798
104149,-0.025808487675689894
104150,-0.02843925409739655
104151,-0.03032821340786804
104152,-0.030975341796875
104153,-0.03088065762013808
104154,-0.030917438992080923
104155,-0.02832344576053934
104156,-0.028402462725494397
104157,-0.02857072328244174
104158,-0.02603463012842281
104159,-0.026055737924966373
104160,-0.02595563043612614
104161,-0.023687918055125514
104162,-0.02107282702703379
104163,-0.017352827574402197
104164,-0.014474756358233105
104165,-0.01374862191330558
104166,-0.011501983692626354
104167,-0.009039491464185295
104168,-0.008886905391714177
104169,-0.009002685546875
104170,-0.009039496918694009
104171,-0.009060572897190465
104172,-0.009286789895085606
104173,-0.009002685546875
104174,-0.00885009765625
104175,-0.00890798137022358
104176,-0.008713271522477112
104177,-0.00640869140625
104178,-0.006429746475750902
104179,-0.006445519141645735
104180,-0.006561279296875
104181,-0.006445522777987623
104182,-0.004293505097955829
104183,-0.003909408714977255
104184,-0.0016205912646962567
104185,-0.001373291015625
104186,-0.00152587890625
104187,-0.0018152429308719402
104188,-0.004083028947923713
104189,-0.005419472228221419
104190,-0.006313973593290913
104191,-0.008108177818215734
104192,-0.00885009765625
104193,-0.010644299153926937
104194,-0.011444091796875
104195,-0.01148094862303995
104196,-0.011386227173738977
104197,-0.009286858076592165
104198,-0.008618646436389684
104199,-0.006140379723882846
104200,-0.003925295016735185
104201,-0.001925782500424866
104202,-0.0016206076282582766
104203,-0.0016206085373458095
104204,-0.0015837362566851886
104205,-0.0015627539141585057
104206,-0.0014680233739857548
104207,-0.0014101696598883297
104208,0.0009524078061883964
104209,0.0009524096243764004
104210,0.0008576754478276415
104211,0.00335693359375
104212,0.003204345703125
104213,0.005514123677847239
104214,0.005740491584186589
104215,0.00560885876347294
104216,0.005835234851590065
104217,0.005566957714513765
104218,0.0032412443473069513
104219,0.0031465019889974776
104220,0.003167443422601162
104221,0.00335693359375
104222,0.0031095987993731704
104223,0.003109597890268575
104224,0.001105024787650854
104225,0.0008576890841523684
104226,0.0008786141541322591
104227,0.0009364487773856648
104228,0.0008576918114173138
104229,-0.0005943488974434211
104230,-0.004314287441220457
104231,-0.010512552697213705
104232,-0.018105018584390335
104233,-0.027754975246983987
104234,-0.0360107421875
104235,-0.03833649010004829
104236,-0.040530550646618146
104237,-0.040740966796875
104238,-0.04058837890625
104239,-0.039215087890625
104240,-0.03697926084009524
104241,-0.03429050888669922
104242,-0.03089663846704977
104243,-0.0270241229417499
104244,-0.023630247976706945
104245,-0.0213623046875
104246,-0.01880526009997985
104247,-0.017316334383168326
104248,-0.016095634894518474
104249,-0.013559460831764613
104250,-0.011270645199620436
104251,-0.008771427053578256
104252,-0.006524318834731561
104253,-0.00396728515625
104254,-0.001983642578125
104255,-0.0013894118619635037
104256,0.0006103515625
104257,0.002309657975164677
104258,0.0032251825916520616
104259,0.0032251798643700555
104260,0.005530139070032179
104261,0.007897593486779817
104262,0.010549390432607011
104263,0.012264834964281466
104264,0.013064755788562537
104265,0.012838200610206565
104266,0.013064757606733481
104267,0.013027770781058115
104268,0.013027769871970577
104269,0.01308556722262815
104270,0.012969970703125
104271,0.0152587890625
104272,0.013159555419380544
104273,0.013064763970340312
104274,0.012912176988809315
104275,0.010470771647886255
104276,0.010586356349269741
104277,0.01073894333081134
104278,0.009076701016229803
104279,0.008144947372004796
104280,0.005703540212927856
104281,0.005666526114626561
104282,0.0054931640625
104283,0.00574055431121209
104284,0.005682770596862184
104285,0.005856123558116967
104286,0.00579833984375
104287,0.005724291647258252
104288,0.005682777869545957
104289,0.005666504296524058
104290,0.0079345703125
104291,0.008334555724537923
104292,0.007897537123382349
104293,0.00823974609375
104294,0.008161231854086477
104295,0.00783975704537019
104296,0.009501915723907125
104297,0.010833740234375
104298,0.01068115234375
104299,0.01068115234375
104300,0.01068115234375
104301,0.010660432727479104
104302,0.010718203714645325
104303,0.010528564453125
104304,0.010813028799918316
104305,0.010833740234375
