100000,-0.050811767578125
100001,-0.050201416015625
100002,-0.0506591796875
100003,-0.050506591796875
100004,-0.05035400390625
100005,-0.049896240234375
100006,-0.04913330078125
100007,-0.04852294921875
100008,-0.0482177734375
100009,-0.0482177734375
100010,-0.04791259765625
100011,-0.048370361328125
100012,-0.048370361328125
100013,-0.048980712890625
100014,-0.049591064453125
100015,-0.050048828125
100016,-0.05035400390625
100017,-0.050506591796875
100018,-0.0506591796875
100019,-0.050506591796875
100020,-0.050201416015625
100021,-0.0506591796875
100022,-0.050506591796875
100023,-0.05096435546875
100024,-0.052032470703125
100025,-0.052490234375
100026,-0.052947998046875
100027,-0.05279541015625
100028,-0.053253173828125
100029,-0.0531005859375
100030,-0.053253173828125
100031,-0.05279541015625
100032,-0.053253173828125
100033,-0.0537109375
100034,-0.054473876953125
100035,-0.055084228515625
100036,-0.0555419921875
100037,-0.055389404296875
100038,-0.05523681640625
100039,-0.055694580078125
100040,-0.055389404296875
100041,-0.055694580078125
100042,-0.055694580078125
100043,-0.055694580078125
100044,-0.055389404296875
100045,-0.05584716796875
100046,-0.0567626953125
100047,-0.05767822265625
100048,-0.05767822265625
100049,-0.057830810546875
100050,-0.0579833984375
100051,-0.057830810546875
100052,-0.0579833984375
100053,-0.05828857421875
100054,-0.058135986328125
100055,-0.058135986328125
100056,-0.0579833984375
100057,-0.05828857421875
100058,-0.05767822265625
100059,-0.0579833984375
100060,-0.057830810546875
100061,-0.058135986328125
100062,-0.0579833984375
100063,-0.05767822265625
100064,-0.0579833984375
100065,-0.0579833984375
100066,-0.0579833984375
100067,-0.056915283203125
100068,-0.056304931640625
100069,-0.05584716796875
100070,-0.0555419921875
100071,-0.055389404296875
100072,-0.05523681640625
100073,-0.055389404296875
100074,-0.055694580078125
100075,-0.055694580078125
100076,-0.055389404296875
100077,-0.054779052734375
100078,-0.053863525390625
100079,-0.053558349609375
100080,-0.053253173828125
100081,-0.05279541015625
100082,-0.0531005859375
100083,-0.05279541015625
100084,-0.0531005859375
100085,-0.0531005859375
100086,-0.053253173828125
100087,-0.0531005859375
100088,-0.052947998046875
100089,-0.052490234375
100090,-0.0531005859375
100091,-0.0531005859375
100092,-0.05279541015625
100093,-0.0531005859375
100094,-0.05279541015625
100095,-0.0531005859375
100096,-0.0531005859375
100097,-0.0531005859375
100098,-0.053253173828125
100099,-0.053253173828125
100100,-0.053253173828125
100101,-0.052947998046875
100102,-0.052947998046875
100103,-0.052642822265625
100104,-0.05340576171875
100105,-0.052947998046875
100106,-0.0531005859375
100107,-0.053558349609375
100108,-0.05462646484375
100109,-0.054931640625
100110,-0.055084228515625
100111,-0.055389404296875
100112,-0.055389404296875
100113,-0.055389404296875
100114,-0.055999755859375
100115,-0.05615234375
100116,-0.056915283203125
100117,-0.057525634765625
100118,-0.057830810546875
100119,-0.0579833984375
100120,-0.0579833984375
100121,-0.057830810546875
100122,-0.057830810546875
100123,-0.058135986328125
100124,-0.058135986328125
100125,-0.0579833984375
100126,-0.057830810546875
100127,-0.057830810546875
100128,-0.05767822265625
100129,-0.05828857421875
100130,-0.0579833984375
100131,-0.057830810546875
100132,-0.057830810546875
100133,-0.05767822265625
100134,-0.0579833984375
100135,-0.058135986328125
100136,-0.057830810546875
100137,-0.05706787109375
100138,-0.056304931640625
100139,-0.05615234375
100140,-0.055694580078125
100141,-0.055694580078125
100142,-0.05584716796875
100143,-0.05523681640625
100144,-0.055389404296875
100145,-0.055694580078125
100146,-0.055389404296875
100147,-0.0555419921875
100148,-0.055694580078125
100149,-0.055389404296875
100150,-0.0555419921875
100151,-0.054779052734375
100152,-0.054168701171875
100153,-0.053863525390625
100154,-0.05340576171875
100155,-0.0531005859375
100156,-0.0531005859375
100157,-0.052947998046875
100158,-0.0531005859375
100159,-0.052337646484375
100160,-0.05157470703125
100161,-0.051116943359375
100162,-0.050506591796875
100163,-0.05096435546875
100164,-0.050506591796875
100165,-0.04974365234375
100166,-0.0494384765625
100167,-0.048828125
100168,-0.048370361328125
100169,-0.047454833984375
100170,-0.046844482421875
100171,-0.046234130859375
100172,-0.045928955078125
100173,-0.045013427734375
100174,-0.044403076171875
100175,-0.043487548828125
100176,-0.043487548828125
100177,-0.042877197265625
100178,-0.041961669921875
100179,-0.04119873046875
100180,-0.0408935546875
100181,-0.040130615234375
100182,-0.039215087890625
100183,-0.038299560546875
100184,-0.037078857421875
100185,-0.03631591796875
100186,-0.03631591796875
100187,-0.035247802734375
100188,-0.0341796875
100189,-0.034027099609375
100190,-0.0335693359375
100191,-0.032958984375
100192,-0.032196044921875
100193,-0.031280517578125
100194,-0.0311279296875
100195,-0.03082275390625
100196,-0.030975341796875
100197,-0.030364990234375
100198,-0.02960205078125
100199,-0.02838134765625
100200,-0.0274658203125
100201,-0.02655029296875
100202,-0.02593994140625
100203,-0.025482177734375
100204,-0.02471923828125
100205,-0.023651123046875
100206,-0.022735595703125
100207,-0.020904541015625
100208,-0.019989013671875
100209,-0.018768310546875
100210,-0.01739501953125
100211,-0.016326904296875
100212,-0.014801025390625
100213,-0.013885498046875
100214,-0.01251220703125
100215,-0.011138916015625
100216,-0.01007080078125
100217,-0.00823974609375
100218,-0.005950927734375
100219,-0.004425048828125
100220,-0.002899169921875
100221,-0.00152587890625
100222,-0.000152587890625
100223,0.0018310546875
100224,0.003662109375
100225,0.0054931640625
100226,0.006866455078125
100227,0.008087158203125
100228,0.00946044921875
100229,0.011138916015625
100230,0.013427734375
100231,0.015106201171875
100232,0.016632080078125
100233,0.018768310546875
100234,0.020751953125
100235,0.02288818359375
100236,0.0238037109375
100237,0.02532958984375
100238,0.026702880859375
100239,0.0286865234375
100240,0.030364990234375
100241,0.032501220703125
100242,0.033416748046875
100243,0.034942626953125
100244,0.036468505859375
100245,0.037841796875
100246,0.038604736328125
100247,0.040130615234375
100248,0.041046142578125
100249,0.042266845703125
100250,0.043487548828125
100251,0.0445556640625
100252,0.045623779296875
100253,0.047149658203125
100254,0.048370361328125
100255,0.04974365234375
100256,0.050506591796875
100257,0.051727294921875
100258,0.0518798828125
100259,0.052642822265625
100260,0.05340576171875
100261,0.05462646484375
100262,0.055389404296875
100263,0.05615234375
100264,0.056610107421875
100265,0.057525634765625
100266,0.05828857421875
100267,0.058746337890625
100268,0.0592041015625
100269,0.0592041015625
100270,0.0592041015625
100271,0.06011962890625
100272,0.060577392578125
100273,0.06134033203125
100274,0.06103515625
100275,0.06134033203125
100276,0.0616455078125
100277,0.062408447265625
100278,0.06317138671875
100279,0.063323974609375
100280,0.063629150390625
100281,0.064239501953125
100282,0.0640869140625
100283,0.06500244140625
100284,0.06561279296875
100285,0.06622314453125
100286,0.066375732421875
100287,0.066375732421875
100288,0.066680908203125
100289,0.066375732421875
100290,0.0665283203125
100291,0.067291259765625
100292,0.067901611328125
100293,0.068206787109375
100294,0.068817138671875
100295,0.06866455078125
100296,0.069122314453125
100297,0.068511962890625
100298,0.069122314453125
100299,0.069580078125
100300,0.07080078125
100301,0.070953369140625
100302,0.0714111328125
100303,0.07232666015625
100304,0.07293701171875
100305,0.07354736328125
100306,0.07354736328125
100307,0.07476806640625
100308,0.07537841796875
100309,0.07659912109375
100310,0.0775146484375
100311,0.0787353515625
100312,0.0799560546875
100313,0.08148193359375
100314,0.0823974609375
100315,0.083770751953125
100316,0.084686279296875
100317,0.0860595703125
100318,0.087127685546875
100319,0.08880615234375
100320,0.089569091796875
100321,0.091094970703125
100322,0.09246826171875
100323,0.093231201171875
100324,0.094451904296875
100325,0.095977783203125
100326,0.0970458984375
100327,0.09857177734375
100328,0.0994873046875
100329,0.10101318359375
100330,0.10223388671875
100331,0.10345458984375
100332,0.104522705078125
100333,0.10498046875
100334,0.1055908203125
100335,0.106201171875
100336,0.107269287109375
100337,0.108184814453125
100338,0.1092529296875
100339,0.109710693359375
100340,0.110321044921875
100341,0.11077880859375
100342,0.1104736328125
100343,0.110626220703125
100344,0.11077880859375
100345,0.110626220703125
100346,0.1104736328125
100347,0.110321044921875
100348,0.1104736328125
100349,0.110626220703125
100350,0.1104736328125
100351,0.109710693359375
100352,0.108795166015625
100353,0.107574462890625
100354,0.10650634765625
100355,0.10528564453125
100356,0.1043701171875
100357,0.103607177734375
100358,0.1031494140625
100359,0.1025390625
100360,0.101470947265625
100361,0.100555419921875
100362,0.0994873046875
100363,0.0982666015625
100364,0.09674072265625
100365,0.0958251953125
100366,0.094451904296875
100367,0.093231201171875
100368,0.092010498046875
100369,0.090484619140625
100370,0.0897216796875
100371,0.088043212890625
100372,0.086822509765625
100373,0.085906982421875
100374,0.0848388671875
100375,0.083465576171875
100376,0.08209228515625
100377,0.081634521484375
100378,0.081329345703125
100379,0.08026123046875
100380,0.079498291015625
100381,0.078582763671875
100382,0.077362060546875
100383,0.076141357421875
100384,0.07476806640625
100385,0.07354736328125
100386,0.07232666015625
100387,0.0714111328125
100388,0.070037841796875
100389,0.069732666015625
100390,0.069122314453125
100391,0.06805419921875
100392,0.067138671875
100393,0.066070556640625
100394,0.0653076171875
100395,0.063934326171875
100396,0.06256103515625
100397,0.061187744140625
100398,0.060577392578125
100399,0.058746337890625
100400,0.0579833984375
100401,0.0567626953125
100402,0.05523681640625
100403,0.053863525390625
100404,0.052947998046875
100405,0.051727294921875
100406,0.050506591796875
100407,0.048370361328125
100408,0.04669189453125
100409,0.04486083984375
100410,0.042877197265625
100411,0.041656494140625
100412,0.040740966796875
100413,0.03936767578125
100414,0.0384521484375
100415,0.0372314453125
100416,0.0360107421875
100417,0.034942626953125
100418,0.033721923828125
100419,0.032196044921875
100420,0.030975341796875
100421,0.029754638671875
100422,0.02899169921875
100423,0.027313232421875
100424,0.026092529296875
100425,0.025177001953125
100426,0.0238037109375
100427,0.022735595703125
100428,0.0213623046875
100429,0.019378662109375
100430,0.01739501953125
100431,0.015869140625
100432,0.014190673828125
100433,0.01220703125
100434,0.01007080078125
100435,0.00823974609375
100436,0.00701904296875
100437,0.0048828125
100438,0.002899169921875
100439,0.00030517578125
100440,-0.00213623046875
100441,-0.003662109375
100442,-0.0054931640625
100443,-0.00701904296875
100444,-0.007781982421875
100445,-0.009765625
100446,-0.011749267578125
100447,-0.013427734375
100448,-0.01495361328125
100449,-0.017242431640625
100450,-0.0189208984375
100451,-0.02105712890625
100452,-0.022735595703125
100453,-0.02410888671875
100454,-0.02471923828125
100455,-0.02655029296875
100456,-0.0274658203125
100457,-0.029144287109375
100458,-0.03143310546875
100459,-0.03326416015625
100460,-0.0347900390625
100461,-0.036163330078125
100462,-0.0372314453125
100463,-0.0390625
100464,-0.0396728515625
100465,-0.040740966796875
100466,-0.0421142578125
100467,-0.04364013671875
100468,-0.0445556640625
100469,-0.045928955078125
100470,-0.046844482421875
100471,-0.048370361328125
100472,-0.0494384765625
100473,-0.050811767578125
100474,-0.0518798828125
100475,-0.0531005859375
100476,-0.05462646484375
100477,-0.055999755859375
100478,-0.0567626953125
100479,-0.0579833984375
100480,-0.059051513671875
100481,-0.060577392578125
100482,-0.061798095703125
100483,-0.06317138671875
100484,-0.064239501953125
100485,-0.06561279296875
100486,-0.0665283203125
100487,-0.06805419921875
100488,-0.068817138671875
100489,-0.069580078125
100490,-0.069732666015625
100491,-0.07080078125
100492,-0.071563720703125
100493,-0.072784423828125
100494,-0.07415771484375
100495,-0.074615478515625
100496,-0.0750732421875
100497,-0.07598876953125
100498,-0.076446533203125
100499,-0.077362060546875
100500,-0.077972412109375
100501,-0.077972412109375
100502,-0.078887939453125
100503,-0.079498291015625
100504,-0.07965087890625
100505,-0.079803466796875
100506,-0.0799560546875
100507,-0.080108642578125
100508,-0.079803466796875
100509,-0.080413818359375
100510,-0.0811767578125
100511,-0.082244873046875
100512,-0.08209228515625
100513,-0.0823974609375
100514,-0.082244873046875
100515,-0.082855224609375
100516,-0.08270263671875
100517,-0.082855224609375
100518,-0.08392333984375
100519,-0.084686279296875
100520,-0.084991455078125
100521,-0.0848388671875
100522,-0.084991455078125
100523,-0.0848388671875
100524,-0.084991455078125
100525,-0.08544921875
100526,-0.086517333984375
100527,-0.086822509765625
100528,-0.087127685546875
100529,-0.0872802734375
100530,-0.0872802734375
100531,-0.087127685546875
100532,-0.08758544921875
100533,-0.088043212890625
100534,-0.088958740234375
100535,-0.089263916015625
100536,-0.08941650390625
100537,-0.08941650390625
100538,-0.0897216796875
100539,-0.08941650390625
100540,-0.09002685546875
100541,-0.09002685546875
100542,-0.0897216796875
100543,-0.089874267578125
100544,-0.0897216796875
100545,-0.09033203125
100546,-0.09124755859375
100547,-0.091705322265625
100548,-0.09185791015625
100549,-0.0921630859375
100550,-0.09246826171875
100551,-0.092315673828125
100552,-0.0921630859375
100553,-0.0921630859375
100554,-0.092315673828125
100555,-0.092315673828125
100556,-0.0921630859375
100557,-0.092315673828125
100558,-0.0921630859375
100559,-0.0921630859375
100560,-0.092315673828125
100561,-0.0921630859375
100562,-0.092010498046875
100563,-0.0921630859375
100564,-0.092315673828125
100565,-0.091400146484375
100566,-0.09063720703125
100567,-0.090179443359375
100568,-0.09002685546875
100569,-0.0897216796875
100570,-0.089874267578125
100571,-0.089874267578125
100572,-0.089569091796875
100573,-0.088958740234375
100574,-0.088348388671875
100575,-0.087890625
100576,-0.0872802734375
100577,-0.087127685546875
100578,-0.087432861328125
100579,-0.087127685546875
100580,-0.087432861328125
100581,-0.087432861328125
100582,-0.0872802734375
100583,-0.087432861328125
100584,-0.0872802734375
100585,-0.086669921875
100586,-0.0860595703125
100587,-0.08544921875
100588,-0.08514404296875
100589,-0.084991455078125
100590,-0.084991455078125
100591,-0.084686279296875
100592,-0.0848388671875
100593,-0.084686279296875
100594,-0.0848388671875
100595,-0.0848388671875
100596,-0.0848388671875
100597,-0.084686279296875
100598,-0.0848388671875
100599,-0.08514404296875
100600,-0.084686279296875
100601,-0.08453369140625
100602,-0.084686279296875
100603,-0.084228515625
100604,-0.0836181640625
100605,-0.08270263671875
100606,-0.0823974609375
100607,-0.082550048828125
100608,-0.082244873046875
100609,-0.0823974609375
100610,-0.082550048828125
100611,-0.082244873046875
100612,-0.082244873046875
100613,-0.081787109375
100614,-0.0811767578125
100615,-0.080413818359375
100616,-0.080108642578125
100617,-0.080413818359375
100618,-0.080108642578125
100619,-0.0799560546875
100620,-0.0799560546875
100621,-0.079193115234375
100622,-0.078582763671875
100623,-0.077972412109375
100624,-0.077972412109375
100625,-0.077667236328125
100626,-0.07781982421875
100627,-0.0775146484375
100628,-0.077362060546875
100629,-0.076904296875
100630,-0.07598876953125
100631,-0.0750732421875
100632,-0.07537841796875
100633,-0.075225830078125
100634,-0.0750732421875
100635,-0.075225830078125
100636,-0.0750732421875
100637,-0.075225830078125
100638,-0.0750732421875
100639,-0.075225830078125
100640,-0.074920654296875
100641,-0.074310302734375
100642,-0.073394775390625
100643,-0.07293701171875
100644,-0.072784423828125
100645,-0.072479248046875
100646,-0.07232666015625
100647,-0.071868896484375
100648,-0.071258544921875
100649,-0.070343017578125
100650,-0.070343017578125
100651,-0.069427490234375
100652,-0.06866455078125
100653,-0.068359375
100654,-0.067901611328125
100655,-0.0677490234375
100656,-0.067596435546875
100657,-0.066986083984375
100658,-0.066375732421875
100659,-0.06591796875
100660,-0.06561279296875
100661,-0.0653076171875
100662,-0.0653076171875
100663,-0.06439208984375
100664,-0.0640869140625
100665,-0.06317138671875
100666,-0.062713623046875
100667,-0.0628662109375
100668,-0.062713623046875
100669,-0.063018798828125
100670,-0.0628662109375
100671,-0.06195068359375
100672,-0.06134033203125
100673,-0.061187744140625
100674,-0.0604248046875
100675,-0.0604248046875
100676,-0.060272216796875
100677,-0.0604248046875
100678,-0.060577392578125
100679,-0.06072998046875
100680,-0.060272216796875
100681,-0.06072998046875
100682,-0.060272216796875
100683,-0.060577392578125
100684,-0.0604248046875
100685,-0.059661865234375
100686,-0.0592041015625
100687,-0.05828857421875
100688,-0.058135986328125
100689,-0.0579833984375
100690,-0.057830810546875
100691,-0.057830810546875
100692,-0.057830810546875
100693,-0.058135986328125
100694,-0.058135986328125
100695,-0.058135986328125
100696,-0.05828857421875
100697,-0.057220458984375
100698,-0.05645751953125
100699,-0.055999755859375
100700,-0.0555419921875
100701,-0.055389404296875
100702,-0.055389404296875
100703,-0.055389404296875
100704,-0.055389404296875
100705,-0.05462646484375
100706,-0.05401611328125
100707,-0.053253173828125
100708,-0.0531005859375
100709,-0.0531005859375
100710,-0.052947998046875
100711,-0.052642822265625
100712,-0.053253173828125
100713,-0.05279541015625
100714,-0.0531005859375
100715,-0.05218505859375
100716,-0.051727294921875
100717,-0.05157470703125
100718,-0.0506591796875
100719,-0.051116943359375
100720,-0.050506591796875
100721,-0.050506591796875
100722,-0.0506591796875
100723,-0.0506591796875
100724,-0.050506591796875
100725,-0.0506591796875
100726,-0.0506591796875
100727,-0.051422119140625
100728,-0.052032470703125
100729,-0.052642822265625
100730,-0.05279541015625
100731,-0.05340576171875
100732,-0.054168701171875
100733,-0.054931640625
100734,-0.055389404296875
100735,-0.055999755859375
100736,-0.0567626953125
100737,-0.05828857421875
100738,-0.05950927734375
100739,-0.06072998046875
100740,-0.061492919921875
100741,-0.0628662109375
100742,-0.06439208984375
100743,-0.0653076171875
100744,-0.066680908203125
100745,-0.067901611328125
100746,-0.069427490234375
100747,-0.07049560546875
100748,-0.0714111328125
100749,-0.0726318359375
100750,-0.0738525390625
100751,-0.07537841796875
100752,-0.07659912109375
100753,-0.07781982421875
100754,-0.0787353515625
100755,-0.08026123046875
100756,-0.0811767578125
100757,-0.08270263671875
100758,-0.0836181640625
100759,-0.084381103515625
100760,-0.084686279296875
100761,-0.08544921875
100762,-0.08636474609375
100763,-0.086669921875
100764,-0.0872802734375
100765,-0.08636474609375
100766,-0.08575439453125
100767,-0.08544921875
100768,-0.08514404296875
100769,-0.084228515625
100770,-0.083465576171875
100771,-0.081939697265625
100772,-0.0811767578125
100773,-0.079803466796875
100774,-0.078887939453125
100775,-0.077667236328125
100776,-0.0762939453125
100777,-0.074310302734375
100778,-0.072021484375
100779,-0.0701904296875
100780,-0.06744384765625
100781,-0.064239501953125
100782,-0.061187744140625
100783,-0.05706787109375
100784,-0.05401611328125
100785,-0.050201416015625
100786,-0.04638671875
100787,-0.04180908203125
100788,-0.037689208984375
100789,-0.0323486328125
100790,-0.028228759765625
100791,-0.022125244140625
100792,-0.01708984375
100793,-0.0103759765625
100794,-0.004730224609375
100795,0.001678466796875
100796,0.007171630859375
100797,0.014190673828125
100798,0.01983642578125
100799,0.027008056640625
100800,0.033416748046875
100801,0.041656494140625
100802,0.049285888671875
100803,0.057220458984375
100804,0.064697265625
100805,0.074005126953125
100806,0.08209228515625
100807,0.092010498046875
100808,0.100250244140625
100809,0.1104736328125
100810,0.1190185546875
100811,0.130157470703125
100812,0.139923095703125
100813,0.15106201171875
100814,0.160064697265625
100815,0.172119140625
100816,0.18280029296875
100817,0.1959228515625
100818,0.2069091796875
100819,0.220184326171875
100820,0.2313232421875
100821,0.244903564453125
100822,0.25604248046875
100823,0.269622802734375
100824,0.282135009765625
100825,0.296173095703125
100826,0.308685302734375
100827,0.32318115234375
100828,0.335693359375
100829,0.35003662109375
100830,0.36224365234375
100831,0.3778076171875
100832,0.390777587890625
100833,0.405731201171875
100834,0.41839599609375
100835,0.43304443359375
100836,0.445556640625
100837,0.459747314453125
100838,0.472564697265625
100839,0.487060546875
100840,0.499267578125
100841,0.51361083984375
100842,0.52581787109375
100843,0.540771484375
100844,0.552825927734375
100845,0.566864013671875
100846,0.57891845703125
100847,0.591888427734375
100848,0.60272216796875
100849,0.616455078125
100850,0.627288818359375
100851,0.640106201171875
100852,0.650482177734375
100853,0.66253662109375
100854,0.672149658203125
100855,0.684356689453125
100856,0.694580078125
100857,0.705718994140625
100858,0.71502685546875
100859,0.72509765625
100860,0.73333740234375
100861,0.743560791015625
100862,0.752105712890625
100863,0.76171875
100864,0.76995849609375
100865,0.77911376953125
100866,0.78704833984375
100867,0.7965087890625
100868,0.80413818359375
100869,0.814056396484375
100870,0.82305908203125
100871,0.832672119140625
100872,0.840606689453125
100873,0.850830078125
100874,0.859527587890625
100875,0.869903564453125
100876,0.879058837890625
100877,0.888671875
100878,0.897064208984375
100879,0.906829833984375
100880,0.915679931640625
100881,0.926361083984375
100882,0.934906005859375
100883,0.945892333984375
100884,0.954742431640625
100885,0.96466064453125
100886,0.972442626953125
100887,0.9814453125
100888,0.98876953125
100889,0.9967041015625
100890,1.003570556640625
100891,1.010894775390625
100892,1.01776123046875
100893,1.024169921875
100894,1.029815673828125
100895,1.0345458984375
100896,1.03851318359375
100897,1.04095458984375
100898,1.04278564453125
100899,1.044464111328125
100900,1.0455322265625
100901,1.045684814453125
100902,1.04522705078125
100903,1.04278564453125
100904,1.0394287109375
100905,1.035614013671875
100906,1.031494140625
100907,1.025543212890625
100908,1.020050048828125
100909,1.01318359375
100910,1.007080078125
100911,0.99853515625
100912,0.9906005859375
100913,0.9808349609375
100914,0.9722900390625
100915,0.9613037109375
100916,0.950927734375
100917,0.93963623046875
100918,0.9295654296875
100919,0.91705322265625
100920,0.9063720703125
100921,0.89385986328125
100922,0.883331298828125
100923,0.870819091796875
100924,0.859527587890625
100925,0.84716796875
100926,0.836944580078125
100927,0.825653076171875
100928,0.816192626953125
100929,0.80474853515625
100930,0.794677734375
100931,0.783843994140625
100932,0.774688720703125
100933,0.7647705078125
100934,0.75592041015625
100935,0.746307373046875
100936,0.73760986328125
100937,0.727996826171875
100938,0.7196044921875
100939,0.70953369140625
100940,0.7012939453125
100941,0.691070556640625
100942,0.68328857421875
100943,0.673828125
100944,0.66558837890625
100945,0.65582275390625
100946,0.647125244140625
100947,0.636749267578125
100948,0.6280517578125
100949,0.61737060546875
100950,0.6085205078125
100951,0.597991943359375
100952,0.5889892578125
100953,0.577392578125
100954,0.567474365234375
100955,0.5560302734375
100956,0.54595947265625
100957,0.534210205078125
100958,0.524139404296875
100959,0.511474609375
100960,0.500335693359375
100961,0.487518310546875
100962,0.47607421875
100963,0.462493896484375
100964,0.45166015625
100965,0.438690185546875
100966,0.427093505859375
100967,0.4132080078125
100968,0.40130615234375
100969,0.3863525390625
100970,0.3729248046875
100971,0.35858154296875
100972,0.345306396484375
100973,0.330047607421875
100974,0.316925048828125
100975,0.301361083984375
100976,0.28778076171875
100977,0.2716064453125
100978,0.258331298828125
100979,0.241851806640625
100980,0.227813720703125
100981,0.211181640625
100982,0.19744873046875
100983,0.180816650390625
100984,0.166473388671875
100985,0.14923095703125
100986,0.1348876953125
100987,0.118408203125
100988,0.104522705078125
100989,0.087890625
100990,0.073394775390625
100991,0.05645751953125
100992,0.04150390625
100993,0.025634765625
100994,0.011749267578125
100995,-0.0048828125
100996,-0.019378662109375
100997,-0.035552978515625
100998,-0.049285888671875
100999,-0.0653076171875
101000,-0.078887939453125
101001,-0.09490966796875
101002,-0.108184814453125
101003,-0.123291015625
101004,-0.135955810546875
101005,-0.150909423828125
101006,-0.1629638671875
101007,-0.17791748046875
101008,-0.189971923828125
101009,-0.203857421875
101010,-0.215301513671875
101011,-0.2288818359375
101012,-0.2398681640625
101013,-0.25238037109375
101014,-0.263214111328125
101015,-0.274810791015625
101016,-0.2850341796875
101017,-0.29632568359375
101018,-0.305633544921875
101019,-0.316162109375
101020,-0.325164794921875
101021,-0.335845947265625
101022,-0.345001220703125
101023,-0.35491943359375
101024,-0.36285400390625
101025,-0.371551513671875
101026,-0.3790283203125
101027,-0.387115478515625
101028,-0.393524169921875
101029,-0.400543212890625
101030,-0.40679931640625
101031,-0.413970947265625
101032,-0.418853759765625
101033,-0.425262451171875
101034,-0.42999267578125
101035,-0.435333251953125
101036,-0.43975830078125
101037,-0.443572998046875
101038,-0.44647216796875
101039,-0.450439453125
101040,-0.453033447265625
101041,-0.456695556640625
101042,-0.458831787109375
101043,-0.460968017578125
101044,-0.46234130859375
101045,-0.464630126953125
101046,-0.46661376953125
101047,-0.46844482421875
101048,-0.469970703125
101049,-0.4705810546875
101050,-0.471038818359375
101051,-0.47088623046875
101052,-0.47149658203125
101053,-0.47119140625
101054,-0.47119140625
101055,-0.47149658203125
101056,-0.47088623046875
101057,-0.47088623046875
101058,-0.47119140625
101059,-0.470428466796875
101060,-0.469512939453125
101061,-0.468597412109375
101062,-0.467376708984375
101063,-0.465545654296875
101064,-0.4632568359375
101065,-0.46173095703125
101066,-0.460052490234375
101067,-0.458221435546875
101068,-0.456085205078125
101069,-0.453643798828125
101070,-0.45135498046875
101071,-0.4486083984375
101072,-0.446624755859375
101073,-0.443267822265625
101074,-0.44036865234375
101075,-0.43701171875
101076,-0.434417724609375
101077,-0.431365966796875
101078,-0.4278564453125
101079,-0.4248046875
101080,-0.422210693359375
101081,-0.41900634765625
101082,-0.415802001953125
101083,-0.4119873046875
101084,-0.4083251953125
101085,-0.404510498046875
101086,-0.40130615234375
101087,-0.39764404296875
101088,-0.39520263671875
101089,-0.391845703125
101090,-0.388946533203125
101091,-0.38482666015625
101092,-0.38177490234375
101093,-0.3778076171875
101094,-0.37445068359375
101095,-0.370941162109375
101096,-0.368194580078125
101097,-0.365142822265625
101098,-0.361785888671875
101099,-0.35858154296875
101100,-0.356292724609375
101101,-0.352630615234375
101102,-0.349578857421875
101103,-0.346527099609375
101104,-0.34393310546875
101105,-0.34088134765625
101106,-0.3387451171875
101107,-0.335540771484375
101108,-0.332489013671875
101109,-0.32928466796875
101110,-0.3271484375
101111,-0.324249267578125
101112,-0.32196044921875
101113,-0.319061279296875
101114,-0.31646728515625
101115,-0.314178466796875
101116,-0.312042236328125
101117,-0.309295654296875
101118,-0.30731201171875
101119,-0.30517578125
101120,-0.303955078125
101121,-0.301513671875
101122,-0.299530029296875
101123,-0.296783447265625
101124,-0.2947998046875
101125,-0.29296875
101126,-0.29144287109375
101127,-0.289306640625
101128,-0.287322998046875
101129,-0.285491943359375
101130,-0.28411865234375
101131,-0.2825927734375
101132,-0.28167724609375
101133,-0.279388427734375
101134,-0.2777099609375
101135,-0.275726318359375
101136,-0.274200439453125
101137,-0.27313232421875
101138,-0.27191162109375
101139,-0.269622802734375
101140,-0.268096923828125
101141,-0.265960693359375
101142,-0.26458740234375
101143,-0.262603759765625
101144,-0.260772705078125
101145,-0.258636474609375
101146,-0.257110595703125
101147,-0.255126953125
101148,-0.25299072265625
101149,-0.25146484375
101150,-0.250091552734375
101151,-0.248565673828125
101152,-0.247344970703125
101153,-0.2459716796875
101154,-0.245208740234375
101155,-0.24322509765625
101156,-0.2423095703125
101157,-0.240325927734375
101158,-0.238494873046875
101159,-0.23681640625
101160,-0.23529052734375
101161,-0.23406982421875
101162,-0.232696533203125
101163,-0.2313232421875
101164,-0.2301025390625
101165,-0.229034423828125
101166,-0.22796630859375
101167,-0.226287841796875
101168,-0.2252197265625
101169,-0.223388671875
101170,-0.221099853515625
101171,-0.2197265625
101172,-0.2178955078125
101173,-0.21728515625
101174,-0.217132568359375
101175,-0.216217041015625
101176,-0.2154541015625
101177,-0.213775634765625
101178,-0.2130126953125
101179,-0.2117919921875
101180,-0.210723876953125
101181,-0.210113525390625
101182,-0.2099609375
101183,-0.208892822265625
101184,-0.2081298828125
101185,-0.2069091796875
101186,-0.2056884765625
101187,-0.205078125
101188,-0.204620361328125
101189,-0.204010009765625
101190,-0.2032470703125
101191,-0.20233154296875
101192,-0.2020263671875
101193,-0.201568603515625
101194,-0.200653076171875
101195,-0.200042724609375
101196,-0.2001953125
101197,-0.19927978515625
101198,-0.19805908203125
101199,-0.19805908203125
101200,-0.19744873046875
101201,-0.196990966796875
101202,-0.19744873046875
101203,-0.197296142578125
101204,-0.1971435546875
101205,-0.196533203125
101206,-0.1959228515625
101207,-0.1953125
101208,-0.194854736328125
101209,-0.19500732421875
101210,-0.194854736328125
101211,-0.194854736328125
101212,-0.194854736328125
101213,-0.1947021484375
101214,-0.195159912109375
101215,-0.1947021484375
101216,-0.1947021484375
101217,-0.1953125
101218,-0.1947021484375
101219,-0.19500732421875
101220,-0.19500732421875
101221,-0.194854736328125
101222,-0.194854736328125
101223,-0.1953125
101224,-0.19500732421875
101225,-0.195159912109375
101226,-0.194854736328125
101227,-0.194091796875
101228,-0.19378662109375
101229,-0.19287109375
101230,-0.19256591796875
101231,-0.192413330078125
101232,-0.1922607421875
101233,-0.19134521484375
101234,-0.1910400390625
101235,-0.1904296875
101236,-0.190277099609375
101237,-0.189208984375
101238,-0.188751220703125
101239,-0.18707275390625
101240,-0.1861572265625
101241,-0.18585205078125
101242,-0.185394287109375
101243,-0.184783935546875
101244,-0.1837158203125
101245,-0.1824951171875
101246,-0.18157958984375
101247,-0.180206298828125
101248,-0.178985595703125
101249,-0.1776123046875
101250,-0.176544189453125
101251,-0.175018310546875
101252,-0.17425537109375
101253,-0.173187255859375
101254,-0.17303466796875
101255,-0.17242431640625
101256,-0.1715087890625
101257,-0.170135498046875
101258,-0.16937255859375
101259,-0.16754150390625
101260,-0.1666259765625
101261,-0.166015625
101262,-0.1654052734375
101263,-0.16448974609375
101264,-0.1641845703125
101265,-0.162811279296875
101266,-0.161895751953125
101267,-0.16021728515625
101268,-0.159759521484375
101269,-0.15869140625
101270,-0.158538818359375
101271,-0.157623291015625
101272,-0.15655517578125
101273,-0.15533447265625
101274,-0.154571533203125
101275,-0.15380859375
101276,-0.153656005859375
101277,-0.152740478515625
101278,-0.151824951171875
101279,-0.1507568359375
101280,-0.149688720703125
101281,-0.14892578125
101282,-0.148468017578125
101283,-0.147705078125
101284,-0.14678955078125
101285,-0.1458740234375
101286,-0.1446533203125
101287,-0.143280029296875
101288,-0.142059326171875
101289,-0.141448974609375
101290,-0.14129638671875
101291,-0.140380859375
101292,-0.13946533203125
101293,-0.13824462890625
101294,-0.1373291015625
101295,-0.1361083984375
101296,-0.135040283203125
101297,-0.133514404296875
101298,-0.132293701171875
101299,-0.13092041015625
101300,-0.1300048828125
101301,-0.128173828125
101302,-0.127410888671875
101303,-0.1263427734375
101304,-0.124969482421875
101305,-0.123291015625
101306,-0.122528076171875
101307,-0.1214599609375
101308,-0.119476318359375
101309,-0.118865966796875
101310,-0.11810302734375
101311,-0.11566162109375
101312,-0.11383056640625
101313,-0.112152099609375
101314,-0.110931396484375
101315,-0.1092529296875
101316,-0.108184814453125
101317,-0.106658935546875
101318,-0.105438232421875
101319,-0.103759765625
101320,-0.101470947265625
101321,-0.099945068359375
101322,-0.098419189453125
101323,-0.0970458984375
101324,-0.095977783203125
101325,-0.095062255859375
101326,-0.0946044921875
101327,-0.093994140625
101328,-0.09307861328125
101329,-0.0921630859375
101330,-0.090789794921875
101331,-0.09033203125
101332,-0.090179443359375
101333,-0.089111328125
101334,-0.088348388671875
101335,-0.08819580078125
101336,-0.08758544921875
101337,-0.0872802734375
101338,-0.0872802734375
101339,-0.087127685546875
101340,-0.0872802734375
101341,-0.087432861328125
101342,-0.0872802734375
101343,-0.0872802734375
101344,-0.0872802734375
101345,-0.087432861328125
101346,-0.087127685546875
101347,-0.087432861328125
101348,-0.08697509765625
101349,-0.08697509765625
101350,-0.087432861328125
101351,-0.0872802734375
101352,-0.08758544921875
101353,-0.0872802734375
101354,-0.087127685546875
101355,-0.0872802734375
101356,-0.08758544921875
101357,-0.087432861328125
101358,-0.087127685546875
101359,-0.086517333984375
101360,-0.086212158203125
101361,-0.085296630859375
101362,-0.0848388671875
101363,-0.084991455078125
101364,-0.084686279296875
101365,-0.084075927734375
101366,-0.08331298828125
101367,-0.082550048828125
101368,-0.082550048828125
101369,-0.0823974609375
101370,-0.082244873046875
101371,-0.081634521484375
101372,-0.080718994140625
101373,-0.08026123046875
101374,-0.080108642578125
101375,-0.07904052734375
101376,-0.078582763671875
101377,-0.07781982421875
101378,-0.077972412109375
101379,-0.076904296875
101380,-0.0762939453125
101381,-0.075531005859375
101382,-0.075225830078125
101383,-0.074615478515625
101384,-0.0738525390625
101385,-0.073089599609375
101386,-0.07293701171875
101387,-0.073089599609375
101388,-0.072479248046875
101389,-0.071868896484375
101390,-0.071258544921875
101391,-0.07049560546875
101392,-0.070343017578125
101393,-0.070343017578125
101394,-0.06988525390625
101395,-0.069580078125
101396,-0.0689697265625
101397,-0.068359375
101398,-0.0677490234375
101399,-0.066986083984375
101400,-0.06591796875
101401,-0.064849853515625
101402,-0.0640869140625
101403,-0.06317138671875
101404,-0.062713623046875
101405,-0.062255859375
101406,-0.061492919921875
101407,-0.059967041015625
101408,-0.058746337890625
101409,-0.05767822265625
101410,-0.05645751953125
101411,-0.055389404296875
101412,-0.054168701171875
101413,-0.052337646484375
101414,-0.05035400390625
101415,-0.04852294921875
101416,-0.0469970703125
101417,-0.04547119140625
101418,-0.044403076171875
101419,-0.043182373046875
101420,-0.04180908203125
101421,-0.04058837890625
101422,-0.039825439453125
101423,-0.038299560546875
101424,-0.0372314453125
101425,-0.03570556640625
101426,-0.03448486328125
101427,-0.03326416015625
101428,-0.03204345703125
101429,-0.03082275390625
101430,-0.029754638671875
101431,-0.028533935546875
101432,-0.0274658203125
101433,-0.02593994140625
101434,-0.02471923828125
101435,-0.024261474609375
101436,-0.023956298828125
101437,-0.023193359375
101438,-0.022430419921875
101439,-0.02166748046875
101440,-0.021514892578125
101441,-0.020599365234375
101442,-0.019683837890625
101443,-0.019378662109375
101444,-0.01861572265625
101445,-0.019073486328125
101446,-0.018768310546875
101447,-0.01861572265625
101448,-0.018768310546875
101449,-0.018768310546875
101450,-0.01861572265625
101451,-0.018768310546875
101452,-0.018768310546875
101453,-0.018768310546875
101454,-0.0189208984375
101455,-0.0177001953125
101456,-0.01739501953125
101457,-0.016632080078125
101458,-0.0164794921875
101459,-0.016326904296875
101460,-0.016326904296875
101461,-0.016021728515625
101462,-0.01617431640625
101463,-0.01617431640625
101464,-0.016632080078125
101465,-0.0164794921875
101466,-0.016632080078125
101467,-0.01617431640625
101468,-0.01617431640625
101469,-0.0164794921875
101470,-0.01617431640625
101471,-0.016326904296875
101472,-0.016326904296875
101473,-0.016326904296875
101474,-0.016326904296875
101475,-0.016326904296875
101476,-0.016632080078125
101477,-0.01617431640625
101478,-0.016326904296875
101479,-0.0164794921875
101480,-0.01617431640625
101481,-0.016632080078125
101482,-0.01617431640625
101483,-0.015716552734375
101484,-0.014801025390625
101485,-0.01434326171875
101486,-0.013885498046875
101487,-0.013427734375
101488,-0.01251220703125
101489,-0.012054443359375
101490,-0.01129150390625
101491,-0.010833740234375
101492,-0.00946044921875
101493,-0.008697509765625
101494,-0.007781982421875
101495,-0.00640869140625
101496,-0.00518798828125
101497,-0.00396728515625
101498,-0.002899169921875
101499,-0.002288818359375
101500,-0.0018310546875
101501,-0.00091552734375
101502,0.0
101503,0.00091552734375
101504,0.002288818359375
101505,0.00244140625
101506,0.003204345703125
101507,0.00335693359375
101508,0.003204345703125
101509,0.00396728515625
101510,0.004730224609375
101511,0.0054931640625
101512,0.005340576171875
101513,0.005645751953125
101514,0.005645751953125
101515,0.00579833984375
101516,0.005645751953125
101517,0.005340576171875
101518,0.00396728515625
101519,0.003662109375
101520,0.003509521484375
101521,0.00335693359375
101522,0.003204345703125
101523,0.003509521484375
101524,0.003509521484375
101525,0.00244140625
101526,0.001678466796875
101527,0.001220703125
101528,0.00091552734375
101529,0.001068115234375
101530,0.00091552734375
101531,0.0
101532,-0.00030517578125
101533,-0.00091552734375
101534,-0.001373291015625
101535,-0.001373291015625
101536,-0.001983642578125
101537,-0.0018310546875
101538,-0.00152587890625
101539,-0.001373291015625
101540,-0.001678466796875
101541,-0.002288818359375
101542,-0.0030517578125
101543,-0.003509521484375
101544,-0.003814697265625
101545,-0.00396728515625
101546,-0.00396728515625
101547,-0.003204345703125
101548,-0.00274658203125
101549,-0.001983642578125
101550,-0.0018310546875
101551,-0.001678466796875
101552,-0.001678466796875
101553,-0.000762939453125
101554,-0.000152587890625
101555,0.000152587890625
101556,0.000762939453125
101557,0.001373291015625
101558,0.00213623046875
101559,0.002593994140625
101560,0.002899169921875
101561,0.0042724609375
101562,0.004425048828125
101563,0.00518798828125
101564,0.0054931640625
101565,0.006256103515625
101566,0.00732421875
101567,0.008392333984375
101568,0.009002685546875
101569,0.0103759765625
101570,0.010223388671875
101571,0.01129150390625
101572,0.01220703125
101573,0.0128173828125
101574,0.0128173828125
101575,0.01373291015625
101576,0.014190673828125
101577,0.015106201171875
101578,0.0152587890625
101579,0.01617431640625
101580,0.01678466796875
101581,0.01739501953125
101582,0.017547607421875
101583,0.01861572265625
101584,0.01953125
101585,0.020294189453125
101586,0.0201416015625
101587,0.0201416015625
101588,0.020599365234375
101589,0.0201416015625
101590,0.020294189453125
101591,0.020294189453125
101592,0.02044677734375
101593,0.020294189453125
101594,0.020599365234375
101595,0.020599365234375
101596,0.020294189453125
101597,0.02044677734375
101598,0.020294189453125
101599,0.01953125
101600,0.019073486328125
101601,0.018463134765625
101602,0.018157958984375
101603,0.01800537109375
101604,0.0177001953125
101605,0.01708984375
101606,0.016326904296875
101607,0.015869140625
101608,0.015869140625
101609,0.015411376953125
101610,0.015411376953125
101611,0.014495849609375
101612,0.013885498046875
101613,0.013885498046875
101614,0.01312255859375
101615,0.013275146484375
101616,0.012969970703125
101617,0.012969970703125
101618,0.012969970703125
101619,0.01220703125
101620,0.011749267578125
101621,0.010986328125
101622,0.01068115234375
101623,0.01068115234375
101624,0.010528564453125
101625,0.010986328125
101626,0.010833740234375
101627,0.01129150390625
101628,0.01220703125
101629,0.01251220703125
101630,0.0128173828125
101631,0.013275146484375
101632,0.013275146484375
101633,0.01251220703125
101634,0.013275146484375
101635,0.01373291015625
101636,0.014495849609375
101637,0.01495361328125
101638,0.0152587890625
101639,0.01556396484375
101640,0.01556396484375
101641,0.016021728515625
101642,0.01678466796875
101643,0.01739501953125
101644,0.01739501953125
101645,0.017852783203125
101646,0.01800537109375
101647,0.018768310546875
101648,0.01922607421875
101649,0.01983642578125
101650,0.019989013671875
101651,0.02044677734375
101652,0.020294189453125
101653,0.02044677734375
101654,0.021820068359375
101655,0.02197265625
101656,0.022430419921875
101657,0.023345947265625
101658,0.024261474609375
101659,0.02471923828125
101660,0.0250244140625
101661,0.02593994140625
101662,0.02655029296875
101663,0.027923583984375
101664,0.029144287109375
101665,0.02960205078125
101666,0.03021240234375
101667,0.0311279296875
101668,0.031585693359375
101669,0.031890869140625
101670,0.0323486328125
101671,0.032958984375
101672,0.03387451171875
101673,0.03509521484375
101674,0.036163330078125
101675,0.03692626953125
101676,0.037384033203125
101677,0.037689208984375
101678,0.03753662109375
101679,0.03814697265625
101680,0.039215087890625
101681,0.039520263671875
101682,0.039520263671875
101683,0.039520263671875
101684,0.039825439453125
101685,0.039825439453125
101686,0.039520263671875
101687,0.03936767578125
101688,0.0384521484375
101689,0.0384521484375
101690,0.037689208984375
101691,0.036773681640625
101692,0.035858154296875
101693,0.035400390625
101694,0.035400390625
101695,0.03448486328125
101696,0.0335693359375
101697,0.032958984375
101698,0.03265380859375
101699,0.031890869140625
101700,0.031280517578125
101701,0.030670166015625
101702,0.030364990234375
101703,0.029449462890625
101704,0.028533935546875
101705,0.028228759765625
101706,0.02777099609375
101707,0.027618408203125
101708,0.02777099609375
101709,0.027618408203125
101710,0.0274658203125
101711,0.027618408203125
101712,0.027923583984375
101713,0.027313232421875
101714,0.027923583984375
101715,0.02777099609375
101716,0.027923583984375
101717,0.027618408203125
101718,0.027618408203125
101719,0.027618408203125
101720,0.02777099609375
101721,0.027923583984375
101722,0.02777099609375
101723,0.027618408203125
101724,0.0274658203125
101725,0.027313232421875
101726,0.027618408203125
101727,0.02777099609375
101728,0.028076171875
101729,0.02777099609375
101730,0.02777099609375
101731,0.027313232421875
101732,0.027618408203125
101733,0.027923583984375
101734,0.027618408203125
101735,0.027923583984375
101736,0.02777099609375
101737,0.02777099609375
101738,0.027618408203125
101739,0.02777099609375
101740,0.0274658203125
101741,0.02777099609375
101742,0.027618408203125
101743,0.028228759765625
101744,0.029296875
101745,0.029754638671875
101746,0.029754638671875
101747,0.030059814453125
101748,0.0299072265625
101749,0.03021240234375
101750,0.030364990234375
101751,0.03082275390625
101752,0.031890869140625
101753,0.03204345703125
101754,0.032501220703125
101755,0.032501220703125
101756,0.032501220703125
101757,0.033721923828125
101758,0.033721923828125
101759,0.034332275390625
101760,0.035247802734375
101761,0.03570556640625
101762,0.03662109375
101763,0.037841796875
101764,0.03875732421875
101765,0.03936767578125
101766,0.0396728515625
101767,0.040130615234375
101768,0.041046142578125
101769,0.041656494140625
101770,0.041961669921875
101771,0.041961669921875
101772,0.041961669921875
101773,0.04302978515625
101774,0.043182373046875
101775,0.044097900390625
101776,0.04425048828125
101777,0.04425048828125
101778,0.0445556640625
101779,0.0445556640625
101780,0.044403076171875
101781,0.0445556640625
101782,0.044403076171875
101783,0.044708251953125
101784,0.0445556640625
101785,0.044708251953125
101786,0.044708251953125
101787,0.0445556640625
101788,0.044403076171875
101789,0.04364013671875
101790,0.042877197265625
101791,0.04241943359375
101792,0.042266845703125
101793,0.041351318359375
101794,0.041046142578125
101795,0.03997802734375
101796,0.039825439453125
101797,0.039520263671875
101798,0.038604736328125
101799,0.0372314453125
101800,0.036163330078125
101801,0.034942626953125
101802,0.033721923828125
101803,0.032958984375
101804,0.032806396484375
101805,0.031890869140625
101806,0.0311279296875
101807,0.02960205078125
101808,0.02899169921875
101809,0.028228759765625
101810,0.027618408203125
101811,0.027008056640625
101812,0.0262451171875
101813,0.025787353515625
101814,0.025482177734375
101815,0.02532958984375
101816,0.024871826171875
101817,0.0244140625
101818,0.023651123046875
101819,0.02349853515625
101820,0.023040771484375
101821,0.022735595703125
101822,0.02288818359375
101823,0.02288818359375
101824,0.022735595703125
101825,0.02288818359375
101826,0.023040771484375
101827,0.0225830078125
101828,0.022735595703125
101829,0.02288818359375
101830,0.02288818359375
101831,0.023040771484375
101832,0.02288818359375
101833,0.022735595703125
101834,0.0225830078125
101835,0.023193359375
101836,0.0225830078125
101837,0.022735595703125
101838,0.02288818359375
101839,0.02288818359375
101840,0.022735595703125
101841,0.02349853515625
101842,0.024261474609375
101843,0.0250244140625
101844,0.024871826171875
101845,0.02593994140625
101846,0.026702880859375
101847,0.027923583984375
101848,0.02899169921875
101849,0.02960205078125
101850,0.03021240234375
101851,0.030517578125
101852,0.031585693359375
101853,0.03204345703125
101854,0.03265380859375
101855,0.032501220703125
101856,0.032501220703125
101857,0.03204345703125
101858,0.032501220703125
101859,0.032501220703125
101860,0.032501220703125
101861,0.032196044921875
101862,0.0323486328125
101863,0.03173828125
101864,0.0311279296875
101865,0.030670166015625
101866,0.030364990234375
101867,0.029449462890625
101868,0.028533935546875
101869,0.028228759765625
101870,0.027923583984375
101871,0.026702880859375
101872,0.026092529296875
101873,0.025634765625
101874,0.02532958984375
101875,0.024871826171875
101876,0.025177001953125
101877,0.02532958984375
101878,0.0250244140625
101879,0.02471923828125
101880,0.023651123046875
101881,0.023345947265625
101882,0.02288818359375
101883,0.023193359375
101884,0.022735595703125
101885,0.022735595703125
101886,0.022735595703125
101887,0.022735595703125
101888,0.023345947265625
101889,0.022735595703125
101890,0.0225830078125
101891,0.022735595703125
101892,0.0225830078125
101893,0.02288818359375
101894,0.02288818359375
101895,0.02288818359375
101896,0.023040771484375
101897,0.0225830078125
101898,0.022735595703125
101899,0.022735595703125
101900,0.023040771484375
101901,0.02288818359375
101902,0.022735595703125
101903,0.02288818359375
101904,0.02288818359375
101905,0.02288818359375
101906,0.022735595703125
101907,0.022125244140625
101908,0.021209716796875
101909,0.020599365234375
101910,0.020599365234375
101911,0.0201416015625
101912,0.020294189453125
101913,0.020599365234375
101914,0.020294189453125
101915,0.020294189453125
101916,0.01983642578125
101917,0.019683837890625
101918,0.0189208984375
101919,0.018463134765625
101920,0.01800537109375
101921,0.017852783203125
101922,0.017852783203125
101923,0.017242431640625
101924,0.0164794921875
101925,0.016021728515625
101926,0.015716552734375
101927,0.01495361328125
101928,0.014190673828125
101929,0.01373291015625
101930,0.01312255859375
101931,0.01251220703125
101932,0.0115966796875
101933,0.010833740234375
101934,0.010986328125
101935,0.01007080078125
101936,0.0091552734375
101937,0.008697509765625
101938,0.008087158203125
101939,0.00762939453125
101940,0.0067138671875
101941,0.005645751953125
101942,0.004425048828125
101943,0.003814697265625
101944,0.003509521484375
101945,0.002593994140625
101946,0.001983642578125
101947,0.001068115234375
101948,0.00091552734375
101949,0.000457763671875
101950,-0.0006103515625
101951,-0.00213623046875
101952,-0.00274658203125
101953,-0.00396728515625
101954,-0.005340576171875
101955,-0.006866455078125
101956,-0.0079345703125
101957,-0.008544921875
101958,-0.009002685546875
101959,-0.009613037109375
101960,-0.010833740234375
101961,-0.011444091796875
101962,-0.012664794921875
101963,-0.0140380859375
101964,-0.0152587890625
101965,-0.0164794921875
101966,-0.0177001953125
101967,-0.019073486328125
101968,-0.020294189453125
101969,-0.02166748046875
101970,-0.0225830078125
101971,-0.02410888671875
101972,-0.0250244140625
101973,-0.0262451171875
101974,-0.0274658203125
101975,-0.0286865234375
101976,-0.03021240234375
101977,-0.030517578125
101978,-0.030975341796875
101979,-0.030975341796875
101980,-0.031280517578125
101981,-0.031585693359375
101982,-0.0323486328125
101983,-0.032806396484375
101984,-0.033416748046875
101985,-0.0335693359375
101986,-0.033416748046875
101987,-0.03326416015625
101988,-0.0335693359375
101989,-0.03326416015625
101990,-0.033416748046875
101991,-0.0341796875
101992,-0.0347900390625
101993,-0.035552978515625
101994,-0.03570556640625
101995,-0.03662109375
101996,-0.037384033203125
101997,-0.03753662109375
101998,-0.03814697265625
101999,-0.038299560546875
102000,-0.038604736328125
102001,-0.03814697265625
102002,-0.0384521484375
102003,-0.0390625
102004,-0.040130615234375
102005,-0.040283203125
102006,-0.040435791015625
102007,-0.040740966796875
102008,-0.0408935546875
102009,-0.041351318359375
102010,-0.042266845703125
102011,-0.04364013671875
102012,-0.044403076171875
102013,-0.045318603515625
102014,-0.045623779296875
102015,-0.04638671875
102016,-0.04730224609375
102017,-0.04852294921875
102018,-0.04974365234375
102019,-0.05096435546875
102020,-0.051727294921875
102021,-0.053253173828125
102022,-0.0543212890625
102023,-0.055999755859375
102024,-0.056915283203125
102025,-0.057830810546875
102026,-0.0592041015625
102027,-0.060882568359375
102028,-0.061798095703125
102029,-0.0628662109375
102030,-0.064239501953125
102031,-0.06561279296875
102032,-0.06683349609375
102033,-0.067901611328125
102034,-0.068817138671875
102035,-0.069732666015625
102036,-0.06988525390625
102037,-0.070648193359375
102038,-0.07171630859375
102039,-0.073089599609375
102040,-0.07415771484375
102041,-0.074462890625
102042,-0.074920654296875
102043,-0.0750732421875
102044,-0.075225830078125
102045,-0.075225830078125
102046,-0.075225830078125
102047,-0.074920654296875
102048,-0.07537841796875
102049,-0.0750732421875
102050,-0.075225830078125
102051,-0.0750732421875
102052,-0.07476806640625
102053,-0.074462890625
102054,-0.07354736328125
102055,-0.073089599609375
102056,-0.0726318359375
102057,-0.0726318359375
102058,-0.0726318359375
102059,-0.0726318359375
102060,-0.072479248046875
102061,-0.071868896484375
102062,-0.071258544921875
102063,-0.07049560546875
102064,-0.070648193359375
102065,-0.070343017578125
102066,-0.0701904296875
102067,-0.070037841796875
102068,-0.0701904296875
102069,-0.06988525390625
102070,-0.070037841796875
102071,-0.069427490234375
102072,-0.069122314453125
102073,-0.069122314453125
102074,-0.069580078125
102075,-0.06988525390625
102076,-0.070037841796875
102077,-0.070343017578125
102078,-0.0701904296875
102079,-0.07080078125
102080,-0.07171630859375
102081,-0.072479248046875
102082,-0.072784423828125
102083,-0.0732421875
102084,-0.074005126953125
102085,-0.074920654296875
102086,-0.076446533203125
102087,-0.076904296875
102088,-0.0775146484375
102089,-0.077972412109375
102090,-0.07904052734375
102091,-0.0799560546875
102092,-0.0811767578125
102093,-0.081939697265625
102094,-0.08209228515625
102095,-0.0823974609375
102096,-0.082550048828125
102097,-0.082244873046875
102098,-0.0823974609375
102099,-0.0823974609375
102100,-0.082550048828125
102101,-0.082244873046875
102102,-0.082550048828125
102103,-0.08270263671875
102104,-0.08209228515625
102105,-0.081329345703125
102106,-0.080718994140625
102107,-0.08056640625
102108,-0.080108642578125
102109,-0.079193115234375
102110,-0.0787353515625
102111,-0.077362060546875
102112,-0.076141357421875
102113,-0.07476806640625
102114,-0.074005126953125
102115,-0.072479248046875
102116,-0.071563720703125
102117,-0.070037841796875
102118,-0.0689697265625
102119,-0.06744384765625
102120,-0.06622314453125
102121,-0.06500244140625
102122,-0.064239501953125
102123,-0.0634765625
102124,-0.063018798828125
102125,-0.062255859375
102126,-0.061492919921875
102127,-0.06072998046875
102128,-0.060577392578125
102129,-0.061187744140625
102130,-0.06195068359375
102131,-0.062255859375
102132,-0.062713623046875
102133,-0.0628662109375
102134,-0.063018798828125
102135,-0.0628662109375
102136,-0.06317138671875
102137,-0.06256103515625
102138,-0.062713623046875
102139,-0.063323974609375
102140,-0.063018798828125
102141,-0.0628662109375
102142,-0.0628662109375
102143,-0.062713623046875
102144,-0.063018798828125
102145,-0.063018798828125
102146,-0.0628662109375
102147,-0.0628662109375
102148,-0.063018798828125
102149,-0.063018798828125
102150,-0.0628662109375
102151,-0.062408447265625
102152,-0.06134033203125
102153,-0.060577392578125
102154,-0.0592041015625
102155,-0.05828857421875
102156,-0.058135986328125
102157,-0.057373046875
102158,-0.056304931640625
102159,-0.055084228515625
102160,-0.053863525390625
102161,-0.053863525390625
102162,-0.052947998046875
102163,-0.05218505859375
102164,-0.051727294921875
102165,-0.05126953125
102166,-0.05096435546875
102167,-0.050048828125
102168,-0.04913330078125
102169,-0.048675537109375
102170,-0.048370361328125
102171,-0.0482177734375
102172,-0.048065185546875
102173,-0.048065185546875
102174,-0.048065185546875
102175,-0.048980712890625
102176,-0.0494384765625
102177,-0.050201416015625
102178,-0.050506591796875
102179,-0.05035400390625
102180,-0.050506591796875
102181,-0.051116943359375
102182,-0.0518798828125
102183,-0.053253173828125
102184,-0.054473876953125
102185,-0.054779052734375
102186,-0.055389404296875
102187,-0.055999755859375
102188,-0.056915283203125
102189,-0.05767822265625
102190,-0.05767822265625
102191,-0.05859375
102192,-0.059661865234375
102193,-0.060272216796875
102194,-0.0604248046875
102195,-0.0604248046875
102196,-0.060272216796875
102197,-0.0604248046875
102198,-0.060577392578125
102199,-0.0604248046875
102200,-0.060577392578125
102201,-0.060577392578125
102202,-0.0604248046875
102203,-0.0604248046875
102204,-0.059967041015625
102205,-0.060272216796875
102206,-0.060272216796875
102207,-0.060272216796875
102208,-0.060272216796875
102209,-0.06011962890625
102210,-0.0604248046875
102211,-0.05950927734375
102212,-0.05889892578125
102213,-0.05828857421875
102214,-0.057830810546875
102215,-0.057373046875
102216,-0.056610107421875
102217,-0.055084228515625
102218,-0.0543212890625
102219,-0.053558349609375
102220,-0.053253173828125
102221,-0.052490234375
102222,-0.05157470703125
102223,-0.050201416015625
102224,-0.049285888671875
102225,-0.047760009765625
102226,-0.0469970703125
102227,-0.044708251953125
102228,-0.04302978515625
102229,-0.04150390625
102230,-0.03997802734375
102231,-0.038299560546875
102232,-0.0372314453125
102233,-0.03570556640625
102234,-0.0347900390625
102235,-0.034027099609375
102236,-0.033416748046875
102237,-0.032501220703125
102238,-0.03173828125
102239,-0.030670166015625
102240,-0.02960205078125
102241,-0.02899169921875
102242,-0.0286865234375
102243,-0.027923583984375
102244,-0.027008056640625
102245,-0.026702880859375
102246,-0.02593994140625
102247,-0.025482177734375
102248,-0.02471923828125
102249,-0.024261474609375
102250,-0.023956298828125
102251,-0.023651123046875
102252,-0.023651123046875
102253,-0.023040771484375
102254,-0.022430419921875
102255,-0.02166748046875
102256,-0.021209716796875
102257,-0.021209716796875
102258,-0.0213623046875
102259,-0.0213623046875
102260,-0.02105712890625
102261,-0.02105712890625
102262,-0.0213623046875
102263,-0.020599365234375
102264,-0.01983642578125
102265,-0.01922607421875
102266,-0.01922607421875
102267,-0.018768310546875
102268,-0.019073486328125
102269,-0.019378662109375
102270,-0.02044677734375
102271,-0.020599365234375
102272,-0.02105712890625
102273,-0.021209716796875
102274,-0.021514892578125
102275,-0.020904541015625
102276,-0.0213623046875
102277,-0.0213623046875
102278,-0.02105712890625
102279,-0.02044677734375
102280,-0.01953125
102281,-0.01922607421875
102282,-0.019073486328125
102283,-0.018768310546875
102284,-0.019073486328125
102285,-0.018157958984375
102286,-0.017242431640625
102287,-0.016632080078125
102288,-0.0164794921875
102289,-0.015716552734375
102290,-0.01495361328125
102291,-0.014801025390625
102292,-0.0140380859375
102293,-0.013885498046875
102294,-0.0140380859375
102295,-0.0128173828125
102296,-0.01251220703125
102297,-0.01190185546875
102298,-0.0115966796875
102299,-0.0115966796875
102300,-0.011749267578125
102301,-0.01220703125
102302,-0.01312255859375
102303,-0.013580322265625
102304,-0.013580322265625
102305,-0.0146484375
102306,-0.01556396484375
102307,-0.015869140625
102308,-0.016021728515625
102309,-0.016937255859375
102310,-0.017852783203125
102311,-0.01861572265625
102312,-0.018768310546875
102313,-0.0189208984375
102314,-0.01861572265625
102315,-0.018157958984375
102316,-0.01708984375
102317,-0.01678466796875
102318,-0.0164794921875
102319,-0.016632080078125
102320,-0.0164794921875
102321,-0.01556396484375
102322,-0.015106201171875
102323,-0.0146484375
102324,-0.01434326171875
102325,-0.01373291015625
102326,-0.013885498046875
102327,-0.013885498046875
102328,-0.0140380859375
102329,-0.01434326171875
102330,-0.0152587890625
102331,-0.015716552734375
102332,-0.015869140625
102333,-0.016326904296875
102334,-0.01617431640625
102335,-0.0164794921875
102336,-0.016326904296875
102337,-0.016632080078125
102338,-0.016632080078125
102339,-0.0164794921875
102340,-0.0164794921875
102341,-0.0164794921875
102342,-0.01617431640625
102343,-0.01617431640625
102344,-0.01617431640625
102345,-0.01617431640625
102346,-0.016021728515625
102347,-0.016326904296875
102348,-0.016326904296875
102349,-0.016326904296875
102350,-0.016326904296875
102351,-0.015716552734375
102352,-0.014801025390625
102353,-0.01434326171875
102354,-0.013885498046875
102355,-0.013885498046875
102356,-0.013427734375
102357,-0.01312255859375
102358,-0.01251220703125
102359,-0.012054443359375
102360,-0.011749267578125
102361,-0.01190185546875
102362,-0.011444091796875
102363,-0.010986328125
102364,-0.009765625
102365,-0.0091552734375
102366,-0.0091552734375
102367,-0.00823974609375
102368,-0.00732421875
102369,-0.00732421875
102370,-0.0067138671875
102371,-0.005950927734375
102372,-0.005340576171875
102373,-0.004425048828125
102374,-0.004425048828125
102375,-0.0042724609375
102376,-0.00396728515625
102377,-0.003509521484375
102378,-0.00274658203125
102379,-0.00213623046875
102380,-0.001983642578125
102381,-0.0018310546875
102382,-0.00152587890625
102383,-0.001373291015625
102384,-0.001373291015625
102385,-0.001678466796875
102386,-0.00152587890625
102387,-0.001678466796875
102388,-0.001678466796875
102389,-0.00152587890625
102390,-0.001678466796875
102391,-0.002288818359375
102392,-0.003204345703125
102393,-0.003509521484375
102394,-0.003814697265625
102395,-0.0048828125
102396,-0.005645751953125
102397,-0.0067138671875
102398,-0.00762939453125
102399,-0.008392333984375
102400,-0.008697509765625
102401,-0.00946044921875
102402,-0.010223388671875
102403,-0.011444091796875
102404,-0.0128173828125
102405,-0.014190673828125
102406,-0.0152587890625
102407,-0.016021728515625
102408,-0.016326904296875
102409,-0.01678466796875
102410,-0.0177001953125
102411,-0.018310546875
102412,-0.018463134765625
102413,-0.018768310546875
102414,-0.018768310546875
102415,-0.018768310546875
102416,-0.018768310546875
102417,-0.018768310546875
102418,-0.01861572265625
102419,-0.0189208984375
102420,-0.018768310546875
102421,-0.01861572265625
102422,-0.019073486328125
102423,-0.019073486328125
102424,-0.018768310546875
102425,-0.01861572265625
102426,-0.01861572265625
102427,-0.018157958984375
102428,-0.017547607421875
102429,-0.01678466796875
102430,-0.016937255859375
102431,-0.0164794921875
102432,-0.01617431640625
102433,-0.01617431640625
102434,-0.0164794921875
102435,-0.01617431640625
102436,-0.016632080078125
102437,-0.0164794921875
102438,-0.016632080078125
102439,-0.016632080078125
102440,-0.01617431640625
102441,-0.0164794921875
102442,-0.016326904296875
102443,-0.015869140625
102444,-0.0164794921875
102445,-0.016326904296875
102446,-0.016326904296875
102447,-0.015869140625
102448,-0.0146484375
102449,-0.014190673828125
102450,-0.0140380859375
102451,-0.014190673828125
102452,-0.013885498046875
102453,-0.013885498046875
102454,-0.0140380859375
102455,-0.01373291015625
102456,-0.0140380859375
102457,-0.0140380859375
102458,-0.013885498046875
102459,-0.01373291015625
102460,-0.01373291015625
102461,-0.0140380859375
102462,-0.013885498046875
102463,-0.0140380859375
102464,-0.0140380859375
102465,-0.014190673828125
102466,-0.013885498046875
102467,-0.01373291015625
102468,-0.014190673828125
102469,-0.014801025390625
102470,-0.015411376953125
102471,-0.015716552734375
102472,-0.01617431640625
102473,-0.01617431640625
102474,-0.016326904296875
102475,-0.0164794921875
102476,-0.016326904296875
102477,-0.016326904296875
102478,-0.01617431640625
102479,-0.01617431640625
102480,-0.0164794921875
102481,-0.016632080078125
102482,-0.0164794921875
102483,-0.016937255859375
102484,-0.01800537109375
102485,-0.018310546875
102486,-0.01861572265625
102487,-0.018768310546875
102488,-0.018768310546875
102489,-0.01861572265625
102490,-0.019073486328125
102491,-0.018768310546875
102492,-0.0189208984375
102493,-0.01922607421875
102494,-0.019073486328125
102495,-0.01800537109375
102496,-0.01739501953125
102497,-0.0164794921875
102498,-0.0164794921875
102499,-0.015716552734375
102500,-0.01495361328125
102501,-0.014190673828125
102502,-0.0140380859375
102503,-0.013275146484375
102504,-0.01251220703125
102505,-0.01190185546875
102506,-0.011444091796875
102507,-0.01068115234375
102508,-0.009765625
102509,-0.009307861328125
102510,-0.0091552734375
102511,-0.009002685546875
102512,-0.009307861328125
102513,-0.008392333984375
102514,-0.00732421875
102515,-0.007171630859375
102516,-0.0067138671875
102517,-0.00640869140625
102518,-0.006561279296875
102519,-0.006103515625
102520,-0.00518798828125
102521,-0.003814697265625
102522,-0.0030517578125
102523,-0.002288818359375
102524,-0.001678466796875
102525,-0.0006103515625
102526,-0.00030517578125
102527,0.00152587890625
102528,0.00213623046875
102529,0.00244140625
102530,0.002899169921875
102531,0.00396728515625
102532,0.0048828125
102533,0.00579833984375
102534,0.00701904296875
102535,0.007476806640625
102536,0.008087158203125
102537,0.008697509765625
102538,0.009307861328125
102539,0.0103759765625
102540,0.01068115234375
102541,0.010528564453125
102542,0.0103759765625
102543,0.010833740234375
102544,0.01068115234375
102545,0.0103759765625
102546,0.010223388671875
102547,0.01007080078125
102548,0.0091552734375
102549,0.007781982421875
102550,0.0067138671875
102551,0.0054931640625
102552,0.004425048828125
102553,0.00213623046875
102554,0.000457763671875
102555,-0.001678466796875
102556,-0.00274658203125
102557,-0.005035400390625
102558,-0.00701904296875
102559,-0.009002685546875
102560,-0.0103759765625
102561,-0.011444091796875
102562,-0.012664794921875
102563,-0.01373291015625
102564,-0.0152587890625
102565,-0.016632080078125
102566,-0.017547607421875
102567,-0.018157958984375
102568,-0.01861572265625
102569,-0.018463134765625
102570,-0.018768310546875
102571,-0.018463134765625
102572,-0.01861572265625
102573,-0.0189208984375
102574,-0.0189208984375
102575,-0.018310546875
102576,-0.01739501953125
102577,-0.01678466796875
102578,-0.016326904296875
102579,-0.015869140625
102580,-0.014495849609375
102581,-0.013885498046875
102582,-0.012359619140625
102583,-0.012359619140625
102584,-0.0115966796875
102585,-0.010528564453125
102586,-0.009613037109375
102587,-0.008697509765625
102588,-0.00732421875
102589,-0.00732421875
102590,-0.0067138671875
102591,-0.00579833984375
102592,-0.0048828125
102593,-0.004425048828125
102594,-0.0042724609375
102595,-0.004119873046875
102596,-0.004425048828125
102597,-0.003814697265625
102598,-0.004119873046875
102599,-0.004119873046875
102600,-0.00396728515625
102601,-0.00396728515625
102602,-0.004119873046875
102603,-0.003814697265625
102604,-0.0042724609375
102605,-0.004730224609375
102606,-0.0054931640625
102607,-0.006866455078125
102608,-0.0079345703125
102609,-0.008392333984375
102610,-0.008544921875
102611,-0.009613037109375
102612,-0.01068115234375
102613,-0.01190185546875
102614,-0.012969970703125
102615,-0.01434326171875
102616,-0.015106201171875
102617,-0.015716552734375
102618,-0.016021728515625
102619,-0.01708984375
102620,-0.01800537109375
102621,-0.019073486328125
102622,-0.0201416015625
102623,-0.020599365234375
102624,-0.020904541015625
102625,-0.021209716796875
102626,-0.02105712890625
102627,-0.020904541015625
102628,-0.021209716796875
102629,-0.021209716796875
102630,-0.021514892578125
102631,-0.0213623046875
102632,-0.020904541015625
102633,-0.02105712890625
102634,-0.0213623046875
102635,-0.021514892578125
102636,-0.021209716796875
102637,-0.0213623046875
102638,-0.0213623046875
102639,-0.0213623046875
102640,-0.020904541015625
102641,-0.021209716796875
102642,-0.021209716796875
102643,-0.021209716796875
102644,-0.021209716796875
102645,-0.021209716796875
102646,-0.02105712890625
102647,-0.021514892578125
102648,-0.021514892578125
102649,-0.02197265625
102650,-0.02288818359375
102651,-0.023956298828125
102652,-0.024871826171875
102653,-0.025634765625
102654,-0.026092529296875
102655,-0.02685546875
102656,-0.027923583984375
102657,-0.0286865234375
102658,-0.030059814453125
102659,-0.030975341796875
102660,-0.032501220703125
102661,-0.0335693359375
102662,-0.0347900390625
102663,-0.0360107421875
102664,-0.037078857421875
102665,-0.037994384765625
102666,-0.038299560546875
102667,-0.038909912109375
102668,-0.039825439453125
102669,-0.04058837890625
102670,-0.040740966796875
102671,-0.040740966796875
102672,-0.0408935546875
102673,-0.041656494140625
102674,-0.042572021484375
102675,-0.04302978515625
102676,-0.042724609375
102677,-0.042724609375
102678,-0.041656494140625
102679,-0.041351318359375
102680,-0.0408935546875
102681,-0.041046142578125
102682,-0.04058837890625
102683,-0.040130615234375
102684,-0.03936767578125
102685,-0.038604736328125
102686,-0.038299560546875
102687,-0.037384033203125
102688,-0.03692626953125
102689,-0.03570556640625
102690,-0.034637451171875
102691,-0.03387451171875
102692,-0.033721923828125
102693,-0.033111572265625
102694,-0.032196044921875
102695,-0.031585693359375
102696,-0.0311279296875
102697,-0.030517578125
102698,-0.02960205078125
102699,-0.029144287109375
102700,-0.028533935546875
102701,-0.02777099609375
102702,-0.02716064453125
102703,-0.0262451171875
102704,-0.026092529296875
102705,-0.026397705078125
102706,-0.0262451171875
102707,-0.026092529296875
102708,-0.026092529296875
102709,-0.025482177734375
102710,-0.0250244140625
102711,-0.02471923828125
102712,-0.02532958984375
102713,-0.025787353515625
102714,-0.026092529296875
102715,-0.026092529296875
102716,-0.02593994140625
102717,-0.026702880859375
102718,-0.027618408203125
102719,-0.027923583984375
102720,-0.028533935546875
102721,-0.029144287109375
102722,-0.030364990234375
102723,-0.030517578125
102724,-0.030670166015625
102725,-0.0311279296875
102726,-0.0311279296875
102727,-0.0311279296875
102728,-0.030975341796875
102729,-0.03082275390625
102730,-0.030670166015625
102731,-0.03082275390625
102732,-0.030975341796875
102733,-0.030364990234375
102734,-0.02960205078125
102735,-0.029144287109375
102736,-0.029144287109375
102737,-0.027618408203125
102738,-0.027008056640625
102739,-0.02685546875
102740,-0.026092529296875
102741,-0.026397705078125
102742,-0.02593994140625
102743,-0.024871826171875
102744,-0.024871826171875
102745,-0.023956298828125
102746,-0.023956298828125
102747,-0.023956298828125
102748,-0.0238037109375
102749,-0.023956298828125
102750,-0.02349853515625
102751,-0.023651123046875
102752,-0.023956298828125
102753,-0.024871826171875
102754,-0.025177001953125
102755,-0.025482177734375
102756,-0.0262451171875
102757,-0.026702880859375
102758,-0.027618408203125
102759,-0.028228759765625
102760,-0.0286865234375
102761,-0.028533935546875
102762,-0.02838134765625
102763,-0.02899169921875
102764,-0.030059814453125
102765,-0.030517578125
102766,-0.03082275390625
102767,-0.03082275390625
102768,-0.03082275390625
102769,-0.0311279296875
102770,-0.030975341796875
102771,-0.030670166015625
102772,-0.0311279296875
102773,-0.03082275390625
102774,-0.0311279296875
102775,-0.0311279296875
102776,-0.03082275390625
102777,-0.0311279296875
102778,-0.0311279296875
102779,-0.0311279296875
102780,-0.0311279296875
102781,-0.031890869140625
102782,-0.032501220703125
102783,-0.03265380859375
102784,-0.033416748046875
102785,-0.03326416015625
102786,-0.03326416015625
102787,-0.033111572265625
102788,-0.033416748046875
102789,-0.033416748046875
102790,-0.033416748046875
102791,-0.0335693359375
102792,-0.033721923828125
102793,-0.033721923828125
102794,-0.033416748046875
102795,-0.033416748046875
102796,-0.03326416015625
102797,-0.033416748046875
102798,-0.03326416015625
102799,-0.032501220703125
102800,-0.03204345703125
102801,-0.0311279296875
102802,-0.0311279296875
102803,-0.0311279296875
102804,-0.03082275390625
102805,-0.03082275390625
102806,-0.030975341796875
102807,-0.03082275390625
102808,-0.030975341796875
102809,-0.0311279296875
102810,-0.03082275390625
102811,-0.030975341796875
102812,-0.03082275390625
102813,-0.030975341796875
102814,-0.0311279296875
102815,-0.0311279296875
102816,-0.0311279296875
102817,-0.031890869140625
102818,-0.032501220703125
102819,-0.032958984375
102820,-0.03326416015625
102821,-0.033416748046875
102822,-0.03326416015625
102823,-0.0341796875
102824,-0.0347900390625
102825,-0.03509521484375
102826,-0.035858154296875
102827,-0.03692626953125
102828,-0.03753662109375
102829,-0.037994384765625
102830,-0.038604736328125
102831,-0.0390625
102832,-0.039825439453125
102833,-0.040130615234375
102834,-0.040740966796875
102835,-0.041046142578125
102836,-0.040740966796875
102837,-0.04150390625
102838,-0.042724609375
102839,-0.042572021484375
102840,-0.043182373046875
102841,-0.043792724609375
102842,-0.0445556640625
102843,-0.045166015625
102844,-0.0457763671875
102845,-0.0457763671875
102846,-0.045928955078125
102847,-0.04547119140625
102848,-0.045928955078125
102849,-0.04547119140625
102850,-0.045623779296875
102851,-0.04547119140625
102852,-0.04547119140625
102853,-0.045623779296875
102854,-0.0457763671875
102855,-0.0457763671875
102856,-0.045928955078125
102857,-0.0457763671875
102858,-0.0457763671875
102859,-0.045623779296875
102860,-0.0457763671875
102861,-0.045623779296875
102862,-0.04608154296875
102863,-0.0457763671875
102864,-0.0457763671875
102865,-0.04608154296875
102866,-0.0457763671875
102867,-0.04547119140625
102868,-0.045623779296875
102869,-0.045623779296875
102870,-0.0457763671875
102871,-0.04547119140625
102872,-0.0457763671875
102873,-0.04486083984375
102874,-0.0445556640625
102875,-0.043792724609375
102876,-0.0433349609375
102877,-0.042724609375
102878,-0.04180908203125
102879,-0.04058837890625
102880,-0.03936767578125
102881,-0.037841796875
102882,-0.0372314453125
102883,-0.0360107421875
102884,-0.0341796875
102885,-0.0323486328125
102886,-0.03082275390625
102887,-0.0286865234375
102888,-0.0274658203125
102889,-0.025787353515625
102890,-0.024871826171875
102891,-0.023193359375
102892,-0.022430419921875
102893,-0.020751953125
102894,-0.02044677734375
102895,-0.018463134765625
102896,-0.017242431640625
102897,-0.016021728515625
102898,-0.01495361328125
102899,-0.0146484375
102900,-0.01373291015625
102901,-0.013427734375
102902,-0.01251220703125
102903,-0.012054443359375
102904,-0.0115966796875
102905,-0.011138916015625
102906,-0.011444091796875
102907,-0.011444091796875
102908,-0.011444091796875
102909,-0.0115966796875
102910,-0.011444091796875
102911,-0.01190185546875
102912,-0.0128173828125
102913,-0.013427734375
102914,-0.014190673828125
102915,-0.014801025390625
102916,-0.0152587890625
102917,-0.015716552734375
102918,-0.015869140625
102919,-0.01708984375
102920,-0.0177001953125
102921,-0.01861572265625
102922,-0.018463134765625
102923,-0.01861572265625
102924,-0.018463134765625
102925,-0.0177001953125
102926,-0.0177001953125
102927,-0.01678466796875
102928,-0.016326904296875
102929,-0.01678466796875
102930,-0.016326904296875
102931,-0.01556396484375
102932,-0.0152587890625
102933,-0.01434326171875
102934,-0.0140380859375
102935,-0.013275146484375
102936,-0.01251220703125
102937,-0.011138916015625
102938,-0.01007080078125
102939,-0.009765625
102940,-0.0091552734375
102941,-0.008392333984375
102942,-0.007476806640625
102943,-0.006103515625
102944,-0.0054931640625
102945,-0.00457763671875
102946,-0.004119873046875
102947,-0.003509521484375
102948,-0.002288818359375
102949,-0.001983642578125
102950,-0.00152587890625
102951,-0.00091552734375
102952,0.0
102953,0.00091552734375
102954,0.00213623046875
102955,0.002593994140625
102956,0.00335693359375
102957,0.003662109375
102958,0.00457763671875
102959,0.00579833984375
102960,0.0067138671875
102961,0.00823974609375
102962,0.0091552734375
102963,0.0103759765625
102964,0.010528564453125
102965,0.01129150390625
102966,0.012054443359375
102967,0.013275146484375
102968,0.01434326171875
102969,0.015106201171875
102970,0.0152587890625
102971,0.015411376953125
102972,0.015411376953125
102973,0.01556396484375
102974,0.015411376953125
102975,0.0164794921875
102976,0.01708984375
102977,0.01739501953125
102978,0.017852783203125
102979,0.01800537109375
102980,0.01800537109375
102981,0.0189208984375
102982,0.019378662109375
102983,0.020294189453125
102984,0.0201416015625
102985,0.02105712890625
102986,0.021820068359375
102987,0.02197265625
102988,0.023040771484375
102989,0.02349853515625
102990,0.0244140625
102991,0.025634765625
102992,0.02655029296875
102993,0.02716064453125
102994,0.0274658203125
102995,0.028228759765625
102996,0.029144287109375
102997,0.03021240234375
102998,0.031280517578125
102999,0.032806396484375
103000,0.03387451171875
103001,0.034637451171875
103002,0.0347900390625
103003,0.03570556640625
103004,0.03631591796875
103005,0.036773681640625
103006,0.0372314453125
103007,0.03753662109375
103008,0.037384033203125
103009,0.03814697265625
103010,0.0390625
103011,0.03936767578125
103012,0.0396728515625
103013,0.039520263671875
103014,0.039520263671875
103015,0.039520263671875
103016,0.039825439453125
103017,0.0396728515625
103018,0.0396728515625
103019,0.040283203125
103020,0.041046142578125
103021,0.04150390625
103022,0.04180908203125
103023,0.041961669921875
103024,0.0421142578125
103025,0.041961669921875
103026,0.0421142578125
103027,0.041351318359375
103028,0.040435791015625
103029,0.0396728515625
103030,0.039520263671875
103031,0.0396728515625
103032,0.0396728515625
103033,0.039825439453125
103034,0.039825439453125
103035,0.040435791015625
103036,0.0408935546875
103037,0.041961669921875
103038,0.041961669921875
103039,0.0421142578125
103040,0.04180908203125
103041,0.042724609375
103042,0.043182373046875
103043,0.045013427734375
103044,0.0457763671875
103045,0.047149658203125
103046,0.04852294921875
103047,0.049591064453125
103048,0.050506591796875
103049,0.0531005859375
103050,0.05523681640625
103051,0.057220458984375
103052,0.0592041015625
103053,0.062255859375
103054,0.064239501953125
103055,0.067138671875
103056,0.069427490234375
103057,0.072479248046875
103058,0.07568359375
103059,0.0787353515625
103060,0.0811767578125
103061,0.084075927734375
103062,0.086669921875
103063,0.08880615234375
103064,0.09124755859375
103065,0.093994140625
103066,0.095977783203125
103067,0.0982666015625
103068,0.099639892578125
103069,0.10101318359375
103070,0.10223388671875
103071,0.103759765625
103072,0.1043701171875
103073,0.105743408203125
103074,0.106964111328125
103075,0.107574462890625
103076,0.1080322265625
103077,0.1080322265625
103078,0.10772705078125
103079,0.107574462890625
103080,0.1068115234375
103081,0.106201171875
103082,0.105743408203125
103083,0.10498046875
103084,0.10406494140625
103085,0.1031494140625
103086,0.10223388671875
103087,0.101318359375
103088,0.10101318359375
103089,0.10009765625
103090,0.099029541015625
103091,0.0982666015625
103092,0.0970458984375
103093,0.095672607421875
103094,0.094451904296875
103095,0.093231201171875
103096,0.09185791015625
103097,0.09063720703125
103098,0.089569091796875
103099,0.088043212890625
103100,0.08758544921875
103101,0.08514404296875
103102,0.0836181640625
103103,0.08148193359375
103104,0.080413818359375
103105,0.0787353515625
103106,0.0775146484375
103107,0.07598876953125
103108,0.07476806640625
103109,0.074462890625
103110,0.07415771484375
103111,0.0732421875
103112,0.07232666015625
103113,0.071258544921875
103114,0.070037841796875
103115,0.069427490234375
103116,0.06866455078125
103117,0.068206787109375
103118,0.06744384765625
103119,0.066070556640625
103120,0.065460205078125
103121,0.064239501953125
103122,0.064239501953125
103123,0.063629150390625
103124,0.062255859375
103125,0.061492919921875
103126,0.060577392578125
103127,0.05889892578125
103128,0.0579833984375
103129,0.056610107421875
103130,0.055084228515625
103131,0.054168701171875
103132,0.053253173828125
103133,0.052337646484375
103134,0.05157470703125
103135,0.051116943359375
103136,0.049896240234375
103137,0.049896240234375
103138,0.049591064453125
103139,0.049285888671875
103140,0.049591064453125
103141,0.048675537109375
103142,0.04791259765625
103143,0.047760009765625
103144,0.047149658203125
103145,0.04730224609375
103146,0.04669189453125
103147,0.046234130859375
103148,0.045166015625
103149,0.04486083984375
103150,0.0445556640625
103151,0.0445556640625
103152,0.044403076171875
103153,0.0445556640625
103154,0.0445556640625
103155,0.044097900390625
103156,0.04302978515625
103157,0.042724609375
103158,0.041961669921875
103159,0.041351318359375
103160,0.040435791015625
103161,0.039215087890625
103162,0.0372314453125
103163,0.03448486328125
103164,0.03265380859375
103165,0.030059814453125
103166,0.028839111328125
103167,0.02685546875
103168,0.0250244140625
103169,0.023040771484375
103170,0.02197265625
103171,0.02044677734375
103172,0.0189208984375
103173,0.0177001953125
103174,0.01617431640625
103175,0.015411376953125
103176,0.014190673828125
103177,0.013580322265625
103178,0.013275146484375
103179,0.01220703125
103180,0.0115966796875
103181,0.01007080078125
103182,0.0091552734375
103183,0.007781982421875
103184,0.006866455078125
103185,0.006256103515625
103186,0.005950927734375
103187,0.0042724609375
103188,0.003204345703125
103189,0.000762939453125
103190,-0.00030517578125
103191,-0.0018310546875
103192,-0.0030517578125
103193,-0.0042724609375
103194,-0.00579833984375
103195,-0.0079345703125
103196,-0.00946044921875
103197,-0.011444091796875
103198,-0.012664794921875
103199,-0.0140380859375
103200,-0.0152587890625
103201,-0.01678466796875
103202,-0.0177001953125
103203,-0.019378662109375
103204,-0.0201416015625
103205,-0.0213623046875
103206,-0.022430419921875
103207,-0.0238037109375
103208,-0.024871826171875
103209,-0.026092529296875
103210,-0.02777099609375
103211,-0.028839111328125
103212,-0.030059814453125
103213,-0.0311279296875
103214,-0.0323486328125
103215,-0.033721923828125
103216,-0.03448486328125
103217,-0.03631591796875
103218,-0.03692626953125
103219,-0.0384521484375
103220,-0.0396728515625
103221,-0.04150390625
103222,-0.0421142578125
103223,-0.0433349609375
103224,-0.044708251953125
103225,-0.0457763671875
103226,-0.0469970703125
103227,-0.0482177734375
103228,-0.04974365234375
103229,-0.051422119140625
103230,-0.053558349609375
103231,-0.055084228515625
103232,-0.0567626953125
103233,-0.05859375
103234,-0.060882568359375
103235,-0.063323974609375
103236,-0.0653076171875
103237,-0.068359375
103238,-0.070648193359375
103239,-0.073394775390625
103240,-0.075225830078125
103241,-0.077972412109375
103242,-0.0799560546875
103243,-0.081939697265625
103244,-0.083465576171875
103245,-0.08544921875
103246,-0.088043212890625
103247,-0.089569091796875
103248,-0.090789794921875
103249,-0.091552734375
103250,-0.092315673828125
103251,-0.0927734375
103252,-0.09368896484375
103253,-0.09429931640625
103254,-0.094451904296875
103255,-0.094451904296875
103256,-0.094757080078125
103257,-0.094757080078125
103258,-0.0946044921875
103259,-0.094451904296875
103260,-0.094757080078125
103261,-0.093841552734375
103262,-0.09307861328125
103263,-0.0927734375
103264,-0.0921630859375
103265,-0.091705322265625
103266,-0.090789794921875
103267,-0.090179443359375
103268,-0.090179443359375
103269,-0.089569091796875
103270,-0.089569091796875
103271,-0.089569091796875
103272,-0.0897216796875
103273,-0.089569091796875
103274,-0.089874267578125
103275,-0.0897216796875
103276,-0.0897216796875
103277,-0.0897216796875
103278,-0.0897216796875
103279,-0.089569091796875
103280,-0.08941650390625
103281,-0.089874267578125
103282,-0.089874267578125
103283,-0.0897216796875
103284,-0.08941650390625
103285,-0.089111328125
103286,-0.08941650390625
103287,-0.0897216796875
103288,-0.089569091796875
103289,-0.089569091796875
103290,-0.089569091796875
103291,-0.0897216796875
103292,-0.08941650390625
103293,-0.0897216796875
103294,-0.08941650390625
103295,-0.089111328125
103296,-0.088348388671875
103297,-0.086822509765625
103298,-0.0860595703125
103299,-0.0848388671875
103300,-0.083770751953125
103301,-0.08148193359375
103302,-0.079498291015625
103303,-0.077056884765625
103304,-0.07476806640625
103305,-0.07293701171875
103306,-0.0714111328125
103307,-0.06927490234375
103308,-0.066986083984375
103309,-0.064849853515625
103310,-0.062713623046875
103311,-0.060882568359375
103312,-0.059051513671875
103313,-0.05706787109375
103314,-0.05523681640625
103315,-0.05401611328125
103316,-0.0531005859375
103317,-0.052490234375
103318,-0.051727294921875
103319,-0.051116943359375
103320,-0.050811767578125
103321,-0.050811767578125
103322,-0.050506591796875
103323,-0.051116943359375
103324,-0.0518798828125
103325,-0.0531005859375
103326,-0.0543212890625
103327,-0.054779052734375
103328,-0.055084228515625
103329,-0.05615234375
103330,-0.057525634765625
103331,-0.057830810546875
103332,-0.05950927734375
103333,-0.060577392578125
103334,-0.06195068359375
103335,-0.06317138671875
103336,-0.064239501953125
103337,-0.064697265625
103338,-0.0653076171875
103339,-0.06591796875
103340,-0.066986083984375
103341,-0.068359375
103342,-0.07080078125
103343,-0.072174072265625
103344,-0.0738525390625
103345,-0.075225830078125
103346,-0.0762939453125
103347,-0.0775146484375
103348,-0.0787353515625
103349,-0.080108642578125
103350,-0.08148193359375
103351,-0.0830078125
103352,-0.08544921875
103353,-0.0872802734375
103354,-0.0885009765625
103355,-0.09002685546875
103356,-0.091094970703125
103357,-0.0921630859375
103358,-0.093841552734375
103359,-0.09429931640625
103360,-0.09429931640625
103361,-0.09521484375
103362,-0.09613037109375
103363,-0.097198486328125
103364,-0.098724365234375
103365,-0.099029541015625
103366,-0.0994873046875
103367,-0.099334716796875
103368,-0.099334716796875
103369,-0.098876953125
103370,-0.0982666015625
103371,-0.096893310546875
103372,-0.095672607421875
103373,-0.094146728515625
103374,-0.09368896484375
103375,-0.092010498046875
103376,-0.090789794921875
103377,-0.089111328125
103378,-0.08697509765625
103379,-0.085296630859375
103380,-0.0836181640625
103381,-0.081787109375
103382,-0.079345703125
103383,-0.076904296875
103384,-0.074615478515625
103385,-0.07293701171875
103386,-0.071563720703125
103387,-0.06988525390625
103388,-0.068359375
103389,-0.06683349609375
103390,-0.06500244140625
103391,-0.06317138671875
103392,-0.061492919921875
103393,-0.059661865234375
103394,-0.057373046875
103395,-0.055999755859375
103396,-0.0543212890625
103397,-0.0531005859375
103398,-0.0518798828125
103399,-0.04974365234375
103400,-0.04791259765625
103401,-0.04608154296875
103402,-0.044708251953125
103403,-0.04364013671875
103404,-0.043487548828125
103405,-0.04241943359375
103406,-0.041961669921875
103407,-0.04058837890625
103408,-0.039520263671875
103409,-0.038909912109375
103410,-0.038299560546875
103411,-0.038299560546875
103412,-0.038299560546875
103413,-0.037994384765625
103414,-0.03692626953125
103415,-0.036468505859375
103416,-0.035858154296875
103417,-0.03570556640625
103418,-0.035858154296875
103419,-0.0360107421875
103420,-0.035858154296875
103421,-0.035858154296875
103422,-0.03570556640625
103423,-0.0360107421875
103424,-0.035858154296875
103425,-0.03631591796875
103426,-0.035858154296875
103427,-0.035400390625
103428,-0.034637451171875
103429,-0.03448486328125
103430,-0.033721923828125
103431,-0.0335693359375
103432,-0.0335693359375
103433,-0.03265380859375
103434,-0.03204345703125
103435,-0.03143310546875
103436,-0.0311279296875
103437,-0.030975341796875
103438,-0.030670166015625
103439,-0.030364990234375
103440,-0.029754638671875
103441,-0.029296875
103442,-0.028839111328125
103443,-0.0286865234375
103444,-0.028533935546875
103445,-0.028839111328125
103446,-0.029754638671875
103447,-0.030517578125
103448,-0.030975341796875
103449,-0.03173828125
103450,-0.032501220703125
103451,-0.0335693359375
103452,-0.034942626953125
103453,-0.0360107421875
103454,-0.03753662109375
103455,-0.038604736328125
103456,-0.03936767578125
103457,-0.041046142578125
103458,-0.0421142578125
103459,-0.043182373046875
103460,-0.044708251953125
103461,-0.046234130859375
103462,-0.048675537109375
103463,-0.05035400390625
103464,-0.051727294921875
103465,-0.052947998046875
103466,-0.054168701171875
103467,-0.0555419921875
103468,-0.0567626953125
103469,-0.058135986328125
103470,-0.059356689453125
103471,-0.060882568359375
103472,-0.061798095703125
103473,-0.06317138671875
103474,-0.06439208984375
103475,-0.064697265625
103476,-0.06500244140625
103477,-0.0653076171875
103478,-0.065155029296875
103479,-0.065155029296875
103480,-0.064849853515625
103481,-0.065155029296875
103482,-0.065155029296875
103483,-0.0653076171875
103484,-0.065460205078125
103485,-0.0653076171875
103486,-0.065155029296875
103487,-0.065155029296875
103488,-0.065460205078125
103489,-0.065460205078125
103490,-0.06500244140625
103491,-0.0653076171875
103492,-0.065460205078125
103493,-0.0653076171875
103494,-0.06561279296875
103495,-0.0653076171875
103496,-0.065155029296875
103497,-0.06561279296875
103498,-0.065155029296875
103499,-0.065155029296875
103500,-0.065155029296875
103501,-0.065460205078125
103502,-0.065460205078125
103503,-0.06622314453125
103504,-0.066680908203125
103505,-0.067291259765625
103506,-0.067291259765625
103507,-0.066680908203125
103508,-0.06622314453125
103509,-0.065765380859375
103510,-0.0653076171875
103511,-0.0653076171875
103512,-0.0653076171875
103513,-0.064544677734375
103514,-0.06378173828125
103515,-0.062408447265625
103516,-0.061492919921875
103517,-0.059967041015625
103518,-0.05889892578125
103519,-0.0579833984375
103520,-0.0567626953125
103521,-0.05462646484375
103522,-0.05279541015625
103523,-0.050201416015625
103524,-0.048065185546875
103525,-0.045318603515625
103526,-0.042724609375
103527,-0.039825439453125
103528,-0.03662109375
103529,-0.03204345703125
103530,-0.027923583984375
103531,-0.022735595703125
103532,-0.018310546875
103533,-0.01312255859375
103534,-0.008697509765625
103535,-0.003204345703125
103536,0.001373291015625
103537,0.00732421875
103538,0.01251220703125
103539,0.01983642578125
103540,0.025787353515625
103541,0.03326416015625
103542,0.039215087890625
103543,0.046844482421875
103544,0.05401611328125
103545,0.062103271484375
103546,0.069580078125
103547,0.079193115234375
103548,0.087432861328125
103549,0.096893310546875
103550,0.10528564453125
103551,0.115814208984375
103552,0.125274658203125
103553,0.1361083984375
103554,0.145263671875
103555,0.157623291015625
103556,0.168304443359375
103557,0.180816650390625
103558,0.192413330078125
103559,0.20599365234375
103560,0.21820068359375
103561,0.232696533203125
103562,0.2447509765625
103563,0.25970458984375
103564,0.27191162109375
103565,0.28717041015625
103566,0.300445556640625
103567,0.31585693359375
103568,0.329437255859375
103569,0.345458984375
103570,0.358734130859375
103571,0.374755859375
103572,0.388336181640625
103573,0.403900146484375
103574,0.41778564453125
103575,0.433349609375
103576,0.446929931640625
103577,0.462646484375
103578,0.47607421875
103579,0.49285888671875
103580,0.506744384765625
103581,0.52276611328125
103582,0.537567138671875
103583,0.553131103515625
103584,0.56671142578125
103585,0.58258056640625
103586,0.595855712890625
103587,0.610809326171875
103588,0.623931884765625
103589,0.639190673828125
103590,0.65216064453125
103591,0.66650390625
103592,0.67840576171875
103593,0.69183349609375
103594,0.702972412109375
103595,0.715484619140625
103596,0.72601318359375
103597,0.738067626953125
103598,0.748138427734375
103599,0.759429931640625
103600,0.76904296875
103601,0.7794189453125
103602,0.788421630859375
103603,0.799102783203125
103604,0.80780029296875
103605,0.818023681640625
103606,0.825958251953125
103607,0.835418701171875
103608,0.843505859375
103609,0.853271484375
103610,0.86212158203125
103611,0.871734619140625
103612,0.87982177734375
103613,0.889434814453125
103614,0.897369384765625
103615,0.90667724609375
103616,0.91461181640625
103617,0.924072265625
103618,0.932769775390625
103619,0.942535400390625
103620,0.950775146484375
103621,0.9600830078125
103622,0.96832275390625
103623,0.97808837890625
103624,0.986785888671875
103625,0.995635986328125
103626,1.0028076171875
103627,1.012115478515625
103628,1.019439697265625
103629,1.028289794921875
103630,1.03515625
103631,1.04248046875
103632,1.048431396484375
103633,1.05438232421875
103634,1.0589599609375
103635,1.064605712890625
103636,1.068572998046875
103637,1.07421875
103638,1.077423095703125
103639,1.0797119140625
103640,1.081695556640625
103641,1.08306884765625
103642,1.082916259765625
103643,1.082763671875
103644,1.08184814453125
103645,1.078948974609375
103646,1.076202392578125
103647,1.072235107421875
103648,1.068267822265625
103649,1.0614013671875
103650,1.055450439453125
103651,1.047821044921875
103652,1.04095458984375
103653,1.031494140625
103654,1.0235595703125
103655,1.012115478515625
103656,1.002655029296875
103657,0.990447998046875
103658,0.97930908203125
103659,0.967254638671875
103660,0.9564208984375
103661,0.94390869140625
103662,0.933074951171875
103663,0.920562744140625
103664,0.91033935546875
103665,0.89813232421875
103666,0.8880615234375
103667,0.87677001953125
103668,0.86761474609375
103669,0.856781005859375
103670,0.847930908203125
103671,0.8380126953125
103672,0.829620361328125
103673,0.821075439453125
103674,0.814208984375
103675,0.806121826171875
103676,0.799102783203125
103677,0.79193115234375
103678,0.786590576171875
103679,0.779266357421875
103680,0.7733154296875
103681,0.766754150390625
103682,0.7611083984375
103683,0.754852294921875
103684,0.749053955078125
103685,0.74249267578125
103686,0.736846923828125
103687,0.730133056640625
103688,0.72479248046875
103689,0.718231201171875
103690,0.712738037109375
103691,0.705108642578125
103692,0.69854736328125
103693,0.690460205078125
103694,0.682830810546875
103695,0.673370361328125
103696,0.666046142578125
103697,0.65704345703125
103698,0.6488037109375
103699,0.63812255859375
103700,0.628662109375
103701,0.617218017578125
103702,0.607147216796875
103703,0.595245361328125
103704,0.585174560546875
103705,0.572509765625
103706,0.5615234375
103707,0.547943115234375
103708,0.535736083984375
103709,0.521392822265625
103710,0.508575439453125
103711,0.493621826171875
103712,0.480804443359375
103713,0.46417236328125
103714,0.449981689453125
103715,0.432891845703125
103716,0.418701171875
103717,0.40130615234375
103718,0.38665771484375
103719,0.36865234375
103720,0.353240966796875
103721,0.3350830078125
103722,0.3192138671875
103723,0.300750732421875
103724,0.285186767578125
103725,0.266571044921875
103726,0.251007080078125
103727,0.232086181640625
103728,0.216827392578125
103729,0.1983642578125
103730,0.1824951171875
103731,0.16326904296875
103732,0.14678955078125
103733,0.127410888671875
103734,0.11138916015625
103735,0.0921630859375
103736,0.07598876953125
103737,0.05645751953125
103738,0.040435791015625
103739,0.0225830078125
103740,0.006561279296875
103741,-0.011444091796875
103742,-0.0262451171875
103743,-0.044403076171875
103744,-0.059814453125
103745,-0.076904296875
103746,-0.092010498046875
103747,-0.10955810546875
103748,-0.124359130859375
103749,-0.14068603515625
103750,-0.154571533203125
103751,-0.1702880859375
103752,-0.184173583984375
103753,-0.200042724609375
103754,-0.213470458984375
103755,-0.228729248046875
103756,-0.241241455078125
103757,-0.2557373046875
103758,-0.2679443359375
103759,-0.282135009765625
103760,-0.293731689453125
103761,-0.306243896484375
103762,-0.3167724609375
103763,-0.328216552734375
103764,-0.337677001953125
103765,-0.348968505859375
103766,-0.358428955078125
103767,-0.36895751953125
103768,-0.377349853515625
103769,-0.386962890625
103770,-0.395050048828125
103771,-0.4034423828125
103772,-0.410614013671875
103773,-0.418853759765625
103774,-0.425567626953125
103775,-0.43243408203125
103776,-0.438385009765625
103777,-0.445404052734375
103778,-0.45074462890625
103779,-0.457763671875
103780,-0.46295166015625
103781,-0.46905517578125
103782,-0.473785400390625
103783,-0.479278564453125
103784,-0.483856201171875
103785,-0.48858642578125
103786,-0.491943359375
103787,-0.49652099609375
103788,-0.4998779296875
103789,-0.503692626953125
103790,-0.506744384765625
103791,-0.51025390625
103792,-0.51300048828125
103793,-0.515899658203125
103794,-0.51788330078125
103795,-0.519866943359375
103796,-0.521240234375
103797,-0.522613525390625
103798,-0.52398681640625
103799,-0.525360107421875
103800,-0.526123046875
103801,-0.52703857421875
103802,-0.52764892578125
103803,-0.52734375
103804,-0.527191162109375
103805,-0.526580810546875
103806,-0.52581787109375
103807,-0.524749755859375
103808,-0.523223876953125
103809,-0.52215576171875
103810,-0.521392822265625
103811,-0.519561767578125
103812,-0.518798828125
103813,-0.516815185546875
103814,-0.51422119140625
103815,-0.511932373046875
103816,-0.509796142578125
103817,-0.507354736328125
103818,-0.505523681640625
103819,-0.502777099609375
103820,-0.500335693359375
103821,-0.497589111328125
103822,-0.495452880859375
103823,-0.49285888671875
103824,-0.4901123046875
103825,-0.48736572265625
103826,-0.484161376953125
103827,-0.48095703125
103828,-0.47821044921875
103829,-0.475616455078125
103830,-0.47332763671875
103831,-0.470733642578125
103832,-0.468292236328125
103833,-0.464935302734375
103834,-0.46173095703125
103835,-0.458831787109375
103836,-0.456390380859375
103837,-0.453643798828125
103838,-0.451202392578125
103839,-0.448760986328125
103840,-0.446319580078125
103841,-0.443267822265625
103842,-0.4400634765625
103843,-0.43701171875
103844,-0.434417724609375
103845,-0.431365966796875
103846,-0.429534912109375
103847,-0.425872802734375
103848,-0.4229736328125
103849,-0.41961669921875
103850,-0.417327880859375
103851,-0.413970947265625
103852,-0.410614013671875
103853,-0.406951904296875
103854,-0.403594970703125
103855,-0.399627685546875
103856,-0.39642333984375
103857,-0.3924560546875
103858,-0.388641357421875
103859,-0.384368896484375
103860,-0.379791259765625
103861,-0.375518798828125
103862,-0.371551513671875
103863,-0.368194580078125
103864,-0.3643798828125
103865,-0.35980224609375
103866,-0.3558349609375
103867,-0.35125732421875
103868,-0.347442626953125
103869,-0.343017578125
103870,-0.340118408203125
103871,-0.336761474609375
103872,-0.334320068359375
103873,-0.330963134765625
103874,-0.327606201171875
103875,-0.3240966796875
103876,-0.3204345703125
103877,-0.317230224609375
103878,-0.31463623046875
103879,-0.312042236328125
103880,-0.309906005859375
103881,-0.30670166015625
103882,-0.304718017578125
103883,-0.30181884765625
103884,-0.2996826171875
103885,-0.297698974609375
103886,-0.296478271484375
103887,-0.294647216796875
103888,-0.2935791015625
103889,-0.292510986328125
103890,-0.291290283203125
103891,-0.290069580078125
103892,-0.288848876953125
103893,-0.2880859375
103894,-0.2880859375
103895,-0.287322998046875
103896,-0.286407470703125
103897,-0.28594970703125
103898,-0.28564453125
103899,-0.285491943359375
103900,-0.285186767578125
103901,-0.285186767578125
103902,-0.285186767578125
103903,-0.285491943359375
103904,-0.28533935546875
103905,-0.285491943359375
103906,-0.28533935546875
103907,-0.285186767578125
103908,-0.285491943359375
103909,-0.2862548828125
103910,-0.287017822265625
103911,-0.28717041015625
103912,-0.287933349609375
103913,-0.28778076171875
103914,-0.28778076171875
103915,-0.28778076171875
103916,-0.287933349609375
103917,-0.28778076171875
103918,-0.287933349609375
103919,-0.287933349609375
103920,-0.28778076171875
103921,-0.286865234375
103922,-0.2862548828125
103923,-0.28564453125
103924,-0.28564453125
103925,-0.28472900390625
103926,-0.28411865234375
103927,-0.283203125
103928,-0.28289794921875
103929,-0.28228759765625
103930,-0.281524658203125
103931,-0.28045654296875
103932,-0.2789306640625
103933,-0.2777099609375
103934,-0.276947021484375
103935,-0.2752685546875
103936,-0.274505615234375
103937,-0.272979736328125
103938,-0.27191162109375
103939,-0.270538330078125
103940,-0.26947021484375
103941,-0.267791748046875
103942,-0.266571044921875
103943,-0.265655517578125
103944,-0.264434814453125
103945,-0.26397705078125
103946,-0.263519287109375
103947,-0.262908935546875
103948,-0.261993408203125
103949,-0.26123046875
103950,-0.261077880859375
103951,-0.261077880859375
103952,-0.2606201171875
103953,-0.26031494140625
103954,-0.259552001953125
103955,-0.2581787109375
103956,-0.25726318359375
103957,-0.255889892578125
103958,-0.25482177734375
103959,-0.253753662109375
103960,-0.25238037109375
103961,-0.251007080078125
103962,-0.24993896484375
103963,-0.24810791015625
103964,-0.247344970703125
103965,-0.246124267578125
103966,-0.244903564453125
103967,-0.24383544921875
103968,-0.242462158203125
103969,-0.2410888671875
103970,-0.240020751953125
103971,-0.23956298828125
103972,-0.239105224609375
103973,-0.23834228515625
103974,-0.237579345703125
103975,-0.23712158203125
103976,-0.23651123046875
103977,-0.236358642578125
103978,-0.236358642578125
103979,-0.23651123046875
103980,-0.236663818359375
103981,-0.2374267578125
103982,-0.237884521484375
103983,-0.23834228515625
103984,-0.2386474609375
103985,-0.238800048828125
103986,-0.23895263671875
103987,-0.239105224609375
103988,-0.238494873046875
103989,-0.23895263671875
103990,-0.239105224609375
103991,-0.2386474609375
103992,-0.23895263671875
103993,-0.238800048828125
103994,-0.238494873046875
103995,-0.23834228515625
103996,-0.237274169921875
103997,-0.23712158203125
103998,-0.236358642578125
103999,-0.23529052734375
104000,-0.234527587890625
104001,-0.233001708984375
104002,-0.231170654296875
104003,-0.2294921875
104004,-0.22796630859375
104005,-0.2264404296875
104006,-0.225372314453125
104007,-0.223236083984375
104008,-0.2215576171875
104009,-0.219879150390625
104010,-0.21820068359375
104011,-0.216064453125
104012,-0.2142333984375
104013,-0.211334228515625
104014,-0.2093505859375
104015,-0.20660400390625
104016,-0.2044677734375
104017,-0.201873779296875
104018,-0.199737548828125
104019,-0.19775390625
104020,-0.1959228515625
104021,-0.193634033203125
104022,-0.19195556640625
104023,-0.189361572265625
104024,-0.187225341796875
104025,-0.18524169921875
104026,-0.183868408203125
104027,-0.18157958984375
104028,-0.179901123046875
104029,-0.178680419921875
104030,-0.178070068359375
104031,-0.177154541015625
104032,-0.17608642578125
104033,-0.175018310546875
104034,-0.1739501953125
104035,-0.17364501953125
104036,-0.17303466796875
104037,-0.1727294921875
104038,-0.172882080078125
104039,-0.172576904296875
104040,-0.172882080078125
104041,-0.1727294921875
104042,-0.173187255859375
104043,-0.172882080078125
104044,-0.17303466796875
104045,-0.172271728515625
104046,-0.17120361328125
104047,-0.170745849609375
104048,-0.170440673828125
104049,-0.16998291015625
104050,-0.16876220703125
104051,-0.168609619140625
104052,-0.16815185546875
104053,-0.167236328125
104054,-0.166473388671875
104055,-0.165557861328125
104056,-0.16387939453125
104057,-0.162200927734375
104058,-0.16021728515625
104059,-0.158233642578125
104060,-0.157012939453125
104061,-0.1556396484375
104062,-0.15411376953125
104063,-0.15228271484375
104064,-0.150604248046875
104065,-0.148773193359375
104066,-0.1470947265625
104067,-0.145111083984375
104068,-0.143280029296875
104069,-0.14129638671875
104070,-0.139923095703125
104071,-0.1385498046875
104072,-0.137176513671875
104073,-0.13580322265625
104074,-0.13458251953125
104075,-0.133514404296875
104076,-0.13214111328125
104077,-0.1312255859375
104078,-0.130157470703125
104079,-0.128173828125
104080,-0.12603759765625
104081,-0.1251220703125
104082,-0.124359130859375
104083,-0.123443603515625
104084,-0.122528076171875
104085,-0.12115478515625
104086,-0.11993408203125
104087,-0.118865966796875
104088,-0.117950439453125
104089,-0.117034912109375
104090,-0.1165771484375
104091,-0.11566162109375
104092,-0.1153564453125
104093,-0.114593505859375
104094,-0.1141357421875
104095,-0.113677978515625
104096,-0.11260986328125
104097,-0.112152099609375
104098,-0.111541748046875
104099,-0.111846923828125
104100,-0.111541748046875
104101,-0.111541748046875
104102,-0.1116943359375
104103,-0.111846923828125
104104,-0.1116943359375
104105,-0.111541748046875
104106,-0.112152099609375
104107,-0.1116943359375
104108,-0.1116943359375
104109,-0.1116943359375
104110,-0.1116943359375
104111,-0.111541748046875
104112,-0.111846923828125
104113,-0.111846923828125
104114,-0.11199951171875
104115,-0.112152099609375
104116,-0.111846923828125
104117,-0.111541748046875
104118,-0.111541748046875
104119,-0.11138916015625
104120,-0.111846923828125
104121,-0.111846923828125
104122,-0.111541748046875
104123,-0.1116943359375
104124,-0.11199951171875
104125,-0.111846923828125
104126,-0.1116943359375
104127,-0.111846923828125
104128,-0.111846923828125
104129,-0.111846923828125
104130,-0.111846923828125
104131,-0.11260986328125
104132,-0.11322021484375
104133,-0.113983154296875
104134,-0.113983154296875
104135,-0.11383056640625
104136,-0.11444091796875
104137,-0.114898681640625
104138,-0.11566162109375
104139,-0.11627197265625
104140,-0.11627197265625
104141,-0.116729736328125
104142,-0.116424560546875
104143,-0.1171875
104144,-0.118255615234375
104145,-0.118560791015625
104146,-0.1190185546875
104147,-0.119476318359375
104148,-0.120849609375
104149,-0.120849609375
104150,-0.121612548828125
104151,-0.121612548828125
104152,-0.1214599609375
104153,-0.121612548828125
104154,-0.121612548828125
104155,-0.121612548828125
104156,-0.121307373046875
104157,-0.121612548828125
104158,-0.1214599609375
104159,-0.121307373046875
104160,-0.121307373046875
104161,-0.121612548828125
104162,-0.12176513671875
104163,-0.120849609375
104164,-0.120086669921875
104165,-0.118865966796875
104166,-0.117950439453125
104167,-0.117034912109375
104168,-0.116424560546875
104169,-0.115814208984375
104170,-0.114898681640625
104171,-0.11383056640625
104172,-0.1129150390625
104173,-0.1123046875
104174,-0.11199951171875
104175,-0.111236572265625
104176,-0.110015869140625
104177,-0.10955810546875
104178,-0.109100341796875
104179,-0.108795166015625
104180,-0.107879638671875
104181,-0.10650634765625
104182,-0.105438232421875
104183,-0.10467529296875
104184,-0.10406494140625
104185,-0.10345458984375
104186,-0.10284423828125
104187,-0.10162353515625
104188,-0.100860595703125
104189,-0.09918212890625
104190,-0.0982666015625
104191,-0.0970458984375
104192,-0.09552001953125
104193,-0.094451904296875
104194,-0.093536376953125
104195,-0.091705322265625
104196,-0.09124755859375
104197,-0.08941650390625
104198,-0.0885009765625
104199,-0.087738037109375
104200,-0.087432861328125
104201,-0.086517333984375
104202,-0.085296630859375
104203,-0.085296630859375
104204,-0.084991455078125
104205,-0.084991455078125
104206,-0.0848388671875
104207,-0.084991455078125
104208,-0.084686279296875
104209,-0.0848388671875
104210,-0.084991455078125
104211,-0.0848388671875
104212,-0.084686279296875
104213,-0.08514404296875
104214,-0.0848388671875
104215,-0.08544921875
104216,-0.08636474609375
104217,-0.08697509765625
104218,-0.087127685546875
104219,-0.087890625
104220,-0.08880615234375
104221,-0.089263916015625
104222,-0.090179443359375
104223,-0.090484619140625
104224,-0.0909423828125
104225,-0.09185791015625
104226,-0.092010498046875
104227,-0.092010498046875
104228,-0.0921630859375
104229,-0.0921630859375
104230,-0.0921630859375
104231,-0.092315673828125
104232,-0.0921630859375
104233,-0.0921630859375
104234,-0.0921630859375
104235,-0.091552734375
104236,-0.0909423828125
104237,-0.09002685546875
104238,-0.09002685546875
104239,-0.089263916015625
104240,-0.08819580078125
104241,-0.087127685546875
104242,-0.0860595703125
104243,-0.084686279296875
104244,-0.08331298828125
104245,-0.08209228515625
104246,-0.081024169921875
104247,-0.08056640625
104248,-0.0799560546875
104249,-0.078277587890625
104250,-0.077056884765625
104251,-0.074920654296875
104252,-0.074005126953125
104253,-0.07232666015625
104254,-0.071258544921875
104255,-0.070343017578125
104256,-0.068817138671875
104257,-0.06744384765625
104258,-0.066070556640625
104259,-0.06439208984375
104260,-0.062255859375
104261,-0.060577392578125
104262,-0.059356689453125
104263,-0.057220458984375
104264,-0.0567626953125
104265,-0.054931640625
104266,-0.05401611328125
104267,-0.0531005859375
104268,-0.0518798828125
104269,-0.0506591796875
104270,-0.0494384765625
104271,-0.04791259765625
104272,-0.046844482421875
104273,-0.04547119140625
104274,-0.044097900390625
104275,-0.04302978515625
104276,-0.04180908203125
104277,-0.04119873046875
104278,-0.041046142578125
104279,-0.040130615234375
104280,-0.0390625
104281,-0.03814697265625
104282,-0.037078857421875
104283,-0.036163330078125
104284,-0.034332275390625
104285,-0.034027099609375
104286,-0.0335693359375
104287,-0.032958984375
104288,-0.03173828125
104289,-0.03173828125
104290,-0.030670166015625
104291,-0.030364990234375
104292,-0.02960205078125
104293,-0.029296875
104294,-0.02899169921875
104295,-0.027923583984375
104296,-0.027008056640625
104297,-0.026092529296875
104298,-0.024871826171875
104299,-0.02349853515625
104300,-0.022735595703125
104301,-0.02105712890625
104302,-0.019989013671875
104303,-0.018463134765625
104304,-0.016937255859375
104305,-0.015411376953125
104306,-0.01373291015625
104307,-0.011749267578125
104308,-0.01007080078125
104309,-0.009002685546875
104310,-0.007781982421875
104311,-0.00640869140625
104312,-0.005340576171875
104313,-0.003814697265625
104314,-0.00274658203125
104315,-0.001373291015625
104316,-0.0006103515625
104317,0.000457763671875
104318,0.000762939453125
104319,0.000457763671875
104320,0.000762939453125
104321,0.001068115234375
104322,0.00091552734375
104323,0.000762939453125
104324,0.0006103515625
104325,0.000457763671875
104326,0.000762939453125
104327,0.0
104328,-0.0006103515625
104329,-0.001373291015625
104330,-0.00152587890625
104331,-0.001678466796875
104332,-0.001373291015625
104333,-0.0018310546875
104334,-0.0018310546875
104335,-0.00244140625
104336,-0.002899169921875
104337,-0.0042724609375
104338,-0.00579833984375
104339,-0.005950927734375
104340,-0.006103515625
104341,-0.00732421875
104342,-0.008392333984375
104343,-0.00946044921875
104344,-0.010223388671875
104345,-0.010986328125
104346,-0.01129150390625
104347,-0.01220703125
104348,-0.0128173828125
104349,-0.013427734375
104350,-0.01373291015625
104351,-0.0140380859375
104352,-0.014190673828125
104353,-0.01495361328125
104354,-0.0152587890625
104355,-0.01617431640625
104356,-0.015869140625
104357,-0.016326904296875
104358,-0.016326904296875
104359,-0.0164794921875
104360,-0.016326904296875
104361,-0.0164794921875
104362,-0.01617431640625
104363,-0.015869140625
104364,-0.01495361328125
104365,-0.01434326171875
104366,-0.014190673828125
104367,-0.012969970703125
104368,-0.012664794921875
104369,-0.01190185546875
104370,-0.01129150390625
104371,-0.01068115234375
104372,-0.009765625
104373,-0.008697509765625
104374,-0.007781982421875
104375,-0.00701904296875
104376,-0.0067138671875
104377,-0.00579833984375
104378,-0.00518798828125
104379,-0.004425048828125
104380,-0.0042724609375
104381,-0.0042724609375
104382,-0.00396728515625
104383,-0.00396728515625
104384,-0.004425048828125
104385,-0.00396728515625
104386,-0.0042724609375
104387,-0.00457763671875
104388,-0.005645751953125
104389,-0.006103515625
104390,-0.006103515625
104391,-0.00701904296875
104392,-0.007781982421875
104393,-0.008697509765625
104394,-0.009002685546875
104395,-0.0091552734375
104396,-0.009613037109375
104397,-0.009613037109375
104398,-0.010223388671875
104399,-0.0103759765625
104400,-0.009765625
104401,-0.009765625
104402,-0.009002685546875
104403,-0.008087158203125
104404,-0.00732421875
104405,-0.00640869140625
104406,-0.005340576171875
104407,-0.004119873046875
104408,-0.00274658203125
104409,-0.001678466796875
104410,-0.00030517578125
104411,0.0
104412,0.0006103515625
104413,0.001678466796875
104414,0.00213623046875
104415,0.003204345703125
104416,0.004425048828125
104417,0.006103515625
104418,0.00732421875
104419,0.008087158203125
104420,0.009613037109375
104421,0.009918212890625
104422,0.010223388671875
104423,0.01068115234375
104424,0.010528564453125
104425,0.010528564453125
104426,0.0103759765625
104427,0.010528564453125
104428,0.010223388671875
104429,0.010833740234375
104430,0.0103759765625
104431,0.010528564453125
104432,0.010528564453125
104433,0.010528564453125
104434,0.01068115234375
104435,0.011138916015625
104436,0.012359619140625
104437,0.012359619140625
104438,0.012969970703125
104439,0.013885498046875
104440,0.014190673828125
104441,0.015106201171875
104442,0.0152587890625
104443,0.01617431640625
104444,0.01708984375
104445,0.01739501953125
104446,0.0177001953125
104447,0.018310546875
104448,0.01953125
104449,0.020904541015625
104450,0.021514892578125
104451,0.02227783203125
104452,0.0225830078125
104453,0.02349853515625
104454,0.024261474609375
104455,0.02532958984375
104456,0.02685546875
104457,0.026702880859375
104458,0.027313232421875
104459,0.027313232421875
104460,0.02777099609375
104461,0.028228759765625
104462,0.029144287109375
104463,0.0299072265625
104464,0.02960205078125
104465,0.030059814453125
104466,0.030059814453125
104467,0.030059814453125
104468,0.029754638671875
104469,0.029449462890625
104470,0.02838134765625
104471,0.027923583984375
104472,0.02777099609375
104473,0.02716064453125
104474,0.0262451171875
104475,0.025787353515625
104476,0.02532958984375
104477,0.024566650390625
104478,0.02349853515625
104479,0.023193359375
104480,0.023040771484375
104481,0.022125244140625
104482,0.021209716796875
104483,0.0201416015625
104484,0.01922607421875
104485,0.01861572265625
104486,0.0177001953125
104487,0.016632080078125
104488,0.01678466796875
104489,0.015106201171875
104490,0.0140380859375
104491,0.012969970703125
104492,0.0115966796875
104493,0.011444091796875
104494,0.010528564453125
104495,0.009918212890625
104496,0.0091552734375
104497,0.00823974609375
104498,0.008392333984375
104499,0.00823974609375
104500,0.008087158203125
104501,0.008392333984375
104502,0.008087158203125
104503,0.00732421875
104504,0.0067138671875
104505,0.006103515625
104506,0.005950927734375
104507,0.005645751953125
104508,0.005645751953125
104509,0.00579833984375
104510,0.005645751953125
104511,0.005035400390625
104512,0.003814697265625
104513,0.003662109375
104514,0.00335693359375
104515,0.00244140625
104516,0.0018310546875
104517,0.00152587890625
104518,0.00091552734375
104519,0.000457763671875
104520,-0.000762939453125
104521,-0.000762939453125
104522,-0.001678466796875
104523,-0.001678466796875
104524,-0.001678466796875
104525,-0.001983642578125
104526,-0.001678466796875
104527,-0.001678466796875
104528,-0.001678466796875
104529,-0.0018310546875
104530,-0.00152587890625
104531,-0.00152587890625
104532,-0.0018310546875
104533,-0.0018310546875
104534,-0.001373291015625
104535,-0.001678466796875
104536,-0.001678466796875
104537,-0.0018310546875
104538,-0.0018310546875
104539,-0.001678466796875
104540,-0.0018310546875
104541,-0.00213623046875
104542,-0.001220703125
104543,-0.00091552734375
104544,0.0
104545,0.000457763671875
104546,0.000457763671875
104547,0.000762939453125
104548,0.00091552734375
104549,0.001678466796875
104550,0.002288818359375
104551,0.00274658203125
104552,0.0030517578125
104553,0.003204345703125
104554,0.002899169921875
104555,0.003204345703125
104556,0.00335693359375
104557,0.00335693359375
104558,0.00335693359375
104559,0.0030517578125
104560,0.003509521484375
104561,0.003509521484375
104562,0.00335693359375
104563,0.00396728515625
104564,0.00457763671875
104565,0.005035400390625
104566,0.0054931640625
104567,0.00579833984375
104568,0.005645751953125
104569,0.005340576171875
104570,0.005645751953125
104571,0.00640869140625
104572,0.007171630859375
104573,0.00823974609375
104574,0.009307861328125
104575,0.009918212890625
104576,0.0103759765625
104577,0.011138916015625
104578,0.01190185546875
104579,0.012969970703125
104580,0.014495849609375
104581,0.015716552734375
104582,0.016632080078125
104583,0.0189208984375
104584,0.020599365234375
104585,0.022735595703125
104586,0.0238037109375
104587,0.025482177734375
104588,0.0262451171875
104589,0.027923583984375
104590,0.028839111328125
104591,0.029754638671875
104592,0.0299072265625
104593,0.030670166015625
104594,0.031890869140625
104595,0.03173828125
104596,0.032501220703125
104597,0.03326416015625
104598,0.034027099609375
104599,0.0341796875
104600,0.0347900390625
104601,0.0341796875
104602,0.03326416015625
104603,0.032958984375
104604,0.032501220703125
104605,0.03173828125
104606,0.030975341796875
104607,0.030059814453125
104608,0.028839111328125
104609,0.02838134765625
104610,0.02777099609375
104611,0.02716064453125
104612,0.02593994140625
104613,0.025177001953125
104614,0.023956298828125
104615,0.022735595703125
104616,0.0213623046875
104617,0.019683837890625
104618,0.0189208984375
104619,0.0177001953125
104620,0.016326904296875
104621,0.015106201171875
104622,0.0140380859375
104623,0.012664794921875
104624,0.011749267578125
104625,0.0103759765625
104626,0.00946044921875
104627,0.00823974609375
104628,0.006866455078125
104629,0.005340576171875
104630,0.0042724609375
104631,0.0030517578125
104632,0.001983642578125
104633,0.000762939453125
104634,-0.000457763671875
104635,-0.0018310546875
104636,-0.0030517578125
104637,-0.004425048828125
104638,-0.00518798828125
104639,-0.00640869140625
104640,-0.006561279296875
104641,-0.00732421875
104642,-0.007781982421875
104643,-0.008544921875
104644,-0.008697509765625
104645,-0.00885009765625
104646,-0.00885009765625
104647,-0.0091552734375
104648,-0.00885009765625
104649,-0.0091552734375
104650,-0.009002685546875
104651,-0.009002685546875
104652,-0.0091552734375
104653,-0.009002685546875
104654,-0.00885009765625
104655,-0.0091552734375
104656,-0.008697509765625
104657,-0.00885009765625
104658,-0.009307861328125
104659,-0.009002685546875
104660,-0.009307861328125
104661,-0.00946044921875
104662,-0.009002685546875
104663,-0.008087158203125
104664,-0.00762939453125
104665,-0.006866455078125
104666,-0.0067138671875
104667,-0.00579833984375
104668,-0.00518798828125
104669,-0.003814697265625
104670,-0.00274658203125
104671,-0.001983642578125
104672,-0.001983642578125
104673,-0.00091552734375
104674,-0.000152587890625
104675,0.000457763671875
104676,0.000457763671875
104677,0.001373291015625
104678,0.001983642578125
104679,0.002899169921875
104680,0.002899169921875
104681,0.003204345703125
104682,0.00335693359375
104683,0.00396728515625
104684,0.00457763671875
104685,0.005035400390625
104686,0.005645751953125
104687,0.0054931640625
104688,0.005645751953125
104689,0.005950927734375
104690,0.005645751953125
104691,0.005340576171875
104692,0.005645751953125
104693,0.005340576171875
104694,0.005950927734375
104695,0.005645751953125
104696,0.005645751953125
104697,0.0054931640625
104698,0.0054931640625
104699,0.00579833984375
104700,0.00579833984375
104701,0.005645751953125
104702,0.005645751953125
104703,0.005645751953125
104704,0.005645751953125
104705,0.0054931640625
104706,0.005645751953125
104707,0.0048828125
104708,0.0042724609375
104709,0.003662109375
104710,0.003204345703125
104711,0.003204345703125
104712,0.0030517578125
104713,0.003509521484375
104714,0.00335693359375
104715,0.003204345703125
104716,0.0030517578125
104717,0.00213623046875
104718,0.001678466796875
104719,0.001373291015625
104720,0.00091552734375
104721,0.0
104722,-0.000762939453125
104723,-0.001373291015625
104724,-0.001373291015625
104725,-0.002288818359375
104726,-0.0030517578125
104727,-0.003662109375
104728,-0.003662109375
104729,-0.00457763671875
104730,-0.005645751953125
104731,-0.005950927734375
104732,-0.0067138671875
104733,-0.00701904296875
104734,-0.008087158203125
104735,-0.0091552734375
104736,-0.0103759765625
104737,-0.011749267578125
104738,-0.012664794921875
104739,-0.0140380859375
104740,-0.0152587890625
104741,-0.017547607421875
104742,-0.01953125
104743,-0.020904541015625
104744,-0.022430419921875
104745,-0.023956298828125
104746,-0.0250244140625
104747,-0.026397705078125
104748,-0.0274658203125
104749,-0.028839111328125
104750,-0.030059814453125
104751,-0.03143310546875
104752,-0.0323486328125
104753,-0.033721923828125
104754,-0.0347900390625
104755,-0.036468505859375
104756,-0.03692626953125
104757,-0.037841796875
104758,-0.038299560546875
104759,-0.038909912109375
104760,-0.039825439453125
104761,-0.040283203125
104762,-0.040740966796875
104763,-0.04150390625
104764,-0.042266845703125
104765,-0.042724609375
104766,-0.04302978515625
104767,-0.043487548828125
104768,-0.043182373046875
104769,-0.043487548828125
104770,-0.043182373046875
104771,-0.04364013671875
104772,-0.0433349609375
104773,-0.04241943359375
104774,-0.04180908203125
104775,-0.04119873046875
104776,-0.041046142578125
104777,-0.040130615234375
104778,-0.0390625
104779,-0.0384521484375
104780,-0.038299560546875
104781,-0.03814697265625
104782,-0.03814697265625
104783,-0.03753662109375
104784,-0.03692626953125
104785,-0.03631591796875
104786,-0.036163330078125
104787,-0.035858154296875
104788,-0.035858154296875
104789,-0.035247802734375
104790,-0.03448486328125
104791,-0.0341796875
104792,-0.03326416015625
104793,-0.03326416015625
104794,-0.033721923828125
104795,-0.033416748046875
104796,-0.033721923828125
104797,-0.033416748046875
104798,-0.03326416015625
104799,-0.033721923828125
104800,-0.033416748046875
104801,-0.033721923828125
104802,-0.03326416015625
104803,-0.0335693359375
104804,-0.033416748046875
104805,-0.033416748046875
104806,-0.033416748046875
104807,-0.033416748046875
104808,-0.0335693359375
104809,-0.033416748046875
104810,-0.0335693359375
104811,-0.033416748046875
104812,-0.033416748046875
104813,-0.0335693359375
104814,-0.0335693359375
104815,-0.0341796875
104816,-0.034942626953125
104817,-0.035400390625
104818,-0.03570556640625
104819,-0.03692626953125
104820,-0.037384033203125
104821,-0.037841796875
104822,-0.038299560546875
104823,-0.03875732421875
104824,-0.039825439453125
104825,-0.040283203125
104826,-0.040740966796875
104827,-0.041656494140625
104828,-0.042266845703125
104829,-0.042724609375
104830,-0.043182373046875
104831,-0.044097900390625
104832,-0.045013427734375
104833,-0.046234130859375
104834,-0.047149658203125
104835,-0.04852294921875
104836,-0.049285888671875
104837,-0.050201416015625
104838,-0.05035400390625
104839,-0.05126953125
104840,-0.052032470703125
104841,-0.0531005859375
104842,-0.0543212890625
104843,-0.05584716796875
104844,-0.056610107421875
104845,-0.057373046875
104846,-0.057830810546875
104847,-0.05767822265625
104848,-0.0579833984375
104849,-0.05889892578125
104850,-0.0592041015625
104851,-0.059814453125
