ECG,PPG,RSP
0.003766485194893143,-0.1025390625,0.4946524989068091
-0.01746591697758673,-0.10375976562502318,0.5024827168260766
-0.015679137008246923,-0.107421875,0.5111024935799695
-0.0015977050524144634,-0.11085510253907337,0.5187909668065165
0.002482710802010605,-0.11260986328126159,0.5286687887849008
-0.014614962473112766,-0.11764526367188369,0.5355461205275979
-0.0010043010066689137,-0.12176513671875,0.5448726763321392
-0.0029886714846428753,-0.12542724609376157,0.5524351208096104
0.005880112281362727,-0.13153076171874903,0.5619625334688144
0.011823371130482267,-0.13267517089844666,0.5710804915801315
0.02833303518554379,-0.13870239257813563,0.5800052265820292
0.022735595703125,-0.14106750488281686,0.5872845230340195
0.02670667597861655,-0.14495849609375386,0.5966856258241964
0.016632080078125,-0.14617919921875,0.6056027036542054
0.016248826578553865,-0.14617919921875,0.6143858278300245
-0.007592152831778572,-0.1457214355468721,0.6223873850096393
-0.0013025692692344912,-0.14160156249997008,0.6314756782733527
-0.014618670579103984,-0.12825012207028788,0.6392390565788185
-0.05567597930837726,-0.107727050781194,0.6468684611500659
-0.038414960284685024,-0.08216857910145678,0.6548030415025763
-0.04197658266566706,-0.04913330078115249,0.6618220945113005
-0.046133625458719574,-0.009613037109319968,0.6692803305021847
-0.038827975685140396,0.033874511718860065,0.67657470703125
-0.02734310810945921,0.077819824218806,0.6836607602937669
-0.02615954293730594,0.11993408203135814,0.69061279296875
-0.01916681313020399,0.161666870117307,0.6966420929280721
-0.03314508243250843,0.19836425781258882,0.7034672702274326
-0.01002588684989283,0.2309417724609766,0.710211066649181
-0.0018681223603697853,0.25970458984380407,0.71533203125
0.007220134090050625,0.28038024902350556,0.7215025772487669
0.0023629001584890104,0.29632568359376643,0.7261772438554628
-0.004388021315255281,0.3049468994140697,0.73272705078125
-0.009411915868079416,0.30548095703125194,0.7379520531886892
-0.0008149617031035164,0.3043365478515292,0.743207071843707
-0.0028691101676580517,0.29525756835936295,0.7469662780400301
0.011209415208717856,0.2806854248046648,0.7507624983625459
0.014153713248592234,0.264892578124945,0.7544615850504293
0.0177001953125,0.2434539794921619,0.7594484052370752
-0.0007294092062462484,0.22155761718743822,0.762731464525045
0.004000817076461649,0.1955413818358861,0.7666015625
-0.01693388242005304,0.16998291015618724,0.7696164132796305
-0.03161587024688246,0.14472961425777822,0.7746032033462515
-0.03130230102724846,0.11795043945305839,0.7761961594795966
-0.019687166149981644,0.09254455566396837,0.7795899666395751
-0.019207647475643467,0.07293701171868724,0.7818603515625
-0.004636195007511126,0.049362182617163845,0.78460693359375
-0.004690114817118143,0.031280517578081556,0.7868773385966749
-0.01680307463187195,0.01686096191401471,0.7869444359037546
0.03731256849684527,0.004272460937472001,0.7888123005708344
0.08776834786355374,-0.007247924804704396,0.7895200568479287
0.08390912655308258,-0.017089843750011584,0.7919982529975016
-0.058427464205631614,-0.023269653320340016,0.7918640483433284
-0.11228071198463367,-0.02502441406251448,0.79132080078125
-0.045480724384376885,-0.029449462890624035,0.79132080078125
-0.03468936800187652,-0.029296875000001932,0.7921692140845843
-0.024676769089438336,-0.03349304199219571,0.79193115234375
-0.019409089996844257,-0.033874511718750965,0.7926453174862684
-0.013275146484375,-0.03410339355468629,0.7924072557454187
0.001583699255156671,-0.03616333007813948,0.7911498798541595
-1.5239043734669783e-05,-0.03936767578125193,0.7894226153200061
0.0036071504255727927,-0.03936767578126641,0.78887939453125
-0.005169675324784574,-0.044403076171872106,0.7866394006824894
-0.004385340635853352,-0.04638671875000772,0.7869140582162777
0.030465706474986972,-0.05249023437500772,0.78460693359375
0.025231880582567524,-0.05828857421875,0.7827453171521396
0.023635833803140247,-0.059432983398459226,0.77911376953125
0.022521817370937013,-0.06576538085938417,0.7784056685475622
0.03904422720351919,-0.0725555419921957,0.7763365755458895
0.027719149543738327,-0.07812500000001449,0.7729430930125077
0.030432154474783014,-0.08384704589845922,0.7698241676129339
0.032925400581464793,-0.09002685546876737,0.7670775788883591
0.008252178958028468,-0.09437561035156757,0.7649413417262776
0.023446708686234496,-0.09796142578124807,0.7622619272820936
0.02923832675131613,-0.09735107421875,0.758941455614678
-0.00892978177426481,-0.09506225585936051,0.7546325260575137
-0.010903770894223867,-0.0875091552734042,0.7520203093204003
-0.023655179206228977,-0.07171630859368627,0.7468995120528943
-0.04692987929877148,-0.045547485351524364,0.7453428605525645
-0.055166820886401194,-0.012969970703033278,0.7408324081541994
-0.059887223030984496,0.025329589843900616,0.7375062806211933
-0.030908140743146465,0.067138671875,0.7326234781611856
-0.04961475550193104,0.11268615722661898,0.7302492863515705
-0.022738336622584957,0.157165527343862,0.72479248046875
-0.015869140625,0.2009582519532901,0.7223201945313271
-0.013761095777480168,0.24169921875009173,0.7171630859375
-0.01553574742915369,0.27748107910160547,0.7130613652071245
-0.01914338814132501,0.3092956542969474,0.71089419815765
-0.019769201300859036,0.3351593017578429,0.706042308851718
-0.014909818809693842,0.3543090820312828,0.7008543138771365
0.00581910088640026,0.3658294677734556,0.6984129009337963
-0.016189814816606706,0.37170410156251543,0.6929507269986781
-0.01905276879211907,0.373916625976562,0.6895317763368526
-0.0069854223618895615,0.369262695312471,0.6854558349748544
-0.0020689859083573015,0.3575897216796397,0.68145751953125
0.010714776297278399,0.3430175781249334,0.67901611328125
0.014257925081845894,0.32455444335935085,0.673828125
0.008428491364085036,0.3045654296874411,0.671319464149615
0.001965570581613625,0.2805328369139597,0.6663021324088295
-0.008001831606213186,0.2536010742187162,0.6638918468061764
-0.01157613617812755,0.22850036621090708,0.6593503340004799
-0.01643274595646155,0.19927978515618822,0.6558900218933051
-0.02873329476853195,0.17433166503895967,0.6535519807700582
-0.03811333531605834,0.14709472656243047,0.6493467878196166
-0.023788103760502197,0.12168884277339188,0.6468693145498974
0.00223956212884228,0.09979248046869207,0.6443966872525615
-0.024643513269210618,0.07804870605466578,0.64117431640625
0.058103697694375615,0.06072998046870559,0.6380240059727154
0.11197441339693015,0.042724609374930486,0.6346310421725735
0.10009765625,0.029296874999967172,0.631341396645865
0.02644370834942989,0.0167083740234235,0.6292051628304586
-0.10033321133799639,0.005187988281219105,0.6270016275613235
-0.0911761005808139,-0.00358581542971212,0.6247307807984906
-0.01299446829839177,-0.0103759765625,0.6228324045772927
-0.003312135122408466,-0.0168609619140765,0.6215443732252667
0.004869372289233439,-0.025939941406265446,0.6184925953327358
-0.013966279871331708,-0.03204345703127317,0.6150324204388756
-0.011002044068638903,-0.03814697265626448,0.6120794060073667
-0.018335126463551985,-0.04394531250000772,0.6098085358178756
0.00859431866549944,-0.05035400390626738,0.606824109579083
-0.0027264735884501763,-0.05767822265625965,0.6022149974663884
0.02122763484676065,-0.06378173828126159,0.599365234375
0.009956189183286767,-0.06935119628909267,0.5950254351704602
0.01513773345915297,-0.0790405273437751,0.5907887802127221
-0.013123468886886555,-0.0868988037109457,0.586686788402424
0.034985758784807516,-0.09246826171877993,0.5822080423179662
0.026637622545244145,-0.10322570800783301,0.5771589406766051
0.028951786879806204,-0.11169433593752896,0.5706113559371303
0.023040771484375,-0.12039184570313369,0.5646425536595338
0.02335971544963532,-0.1266479492187645,0.5601322819811458
0.029348415330070415,-0.13259887695315106,0.5544053800702816
0.03101104403002061,-0.13900756835938224,0.5479252641178022
0.011842495653489533,-0.14129638671875,0.5421983086603125
-0.015884990435280043,-0.14160156249996814,0.53558349609375
-0.012916477593453029,-0.12847900390619207,0.5286674936251485
-0.023050764629139686,-0.11062622070306996,0.5234121135302151
-0.039605466442137964,-0.08453369140619496,0.5164604422951639
-0.052947998046875,-0.05218505859364862,0.5084228515625
-0.05467796501383966,-0.011672973632758914,0.5012690249663695
-0.04970805720394138,0.03219604492199182,0.49455515108552933
-0.058405580356229586,0.07652282714851932,0.48614501953125
-0.025860357688171715,0.12512207031261585,0.4792289467826612
-0.042025370362918424,0.1702117919922411,0.4719721231930413
-0.03290934662454651,0.21179199218760233,0.465087890625
-0.014247610657146081,0.24993896484388903,0.45718884851898894
-0.01595431327527064,0.28564453125,0.4496942710817913
-0.013697408723073824,0.31074523925784386,0.44308331722115774
-0.012886581825834027,0.3326416015625444,0.43528357404267914
-0.017611508662918753,0.34927368164068584,0.4281970957535825
-0.028079665794333745,0.35919189453126643,0.4214832151794261
-0.018748854703936706,0.364303588867187,0.414261862902972
-0.012171596750167567,0.36193847656248646,0.4079171497110632
-0.016426360517772038,0.35476684570309314,0.400255747665951
-0.008887192102448014,0.34515380859370653,0.3954083361991545
0.004288486447756753,0.32775878906244205,0.3879458633291027
-0.00633958609956477,0.3085327148436979,0.3826583619336575
0.010644143237537616,0.286788940429659,0.3759765625
-0.006794120238708758,0.26580810546867856,0.3703131334569434
-0.028615841851134517,0.23818969726554534,0.3661434787529832
-0.020686087390995592,0.21240234374993242,0.361328125
-0.02507264119322538,0.18524169921871525,0.3560726712784033
-0.05303311715048919,0.16082763671868436,0.35329078526728247
-0.03874433413452469,0.1353454589842852,0.34881591796875
-0.022433492161323912,0.11138916015621911,0.3460693359375
-0.0018647941010054155,0.08880615234372297,0.3433580143794567
-0.005796833844037178,0.06835937499995172,0.3406114189615503
0.011725686969435,0.04981994628900022,0.33898280744840326
0.09673186737783433,0.03479003906246717,0.33637119980450314
0.11828936134121247,0.018844604492153465,0.3336921133335999
0.03880408383619767,0.004882812499968139,0.3338623046875
-0.10690418759958949,-0.00686645507813562,0.3318962521859937
-0.07757164550649656,-0.0158691406250251,0.33213391902023026
-0.03841839563733047,-0.026931762695334947,0.3313533928371609
-0.018568554745264938,-0.03387451171877896,0.3318287231589725
-0.01953125,-0.04440307617188369,0.33087805916866725
-0.02441270710026815,-0.05111694335939141,0.33118323829658736
-0.018668372406105964,-0.060577392578168444,0.33172607421875
-0.026123639904287448,-0.06835937500002993,0.331013113876025
-0.000988293903116744,-0.0791168212890707,0.3343025318294127
0.029024168572515947,-0.08758544921877896,0.33345454020600956
0.021431117160914497,-0.0974273681640958,0.3365413543450827
0.010614881663177386,-0.10742187500003089,0.33606607087658136
0.001829804707729669,-0.11962890625001545,0.33857501954024094
0.011562908480666349,-0.13107299804690106,0.33881018976167304
0.0151737469322064,-0.1413726806641016,0.3414241534584186
0.013852928293147508,-0.1510620117187809,0.34393310546875
0.013596615509164025,-0.16326904296876546,0.34430583370366563
0.03779054268487213,-0.17517089843752898,0.3460017801371686
0.04340367970427168,-0.1866149902343895,0.3483406847002376
0.05218505859375,-0.19470214843751352,0.34891840626902115
0.04828759827736221,-0.20042419433596043,0.35149493415967026
0.01892312731704022,-0.20462036132812403,0.3511548559984866
0.012241916896618325,-0.20080566406249228,0.35359627228847373
-0.005776566434599527,-0.1907348632812027,0.3534960028277788
-0.011138916015625,-0.17044067382802364,0.35675048828125
-0.05567294053553843,-0.14236450195308686,0.35624256477904426
-0.05372939268977067,-0.1090240478515176,0.3566132381610162
-0.04913330078125,-0.06896972656239284,0.35851395370176214
-0.04038459204548949,-0.02647399902327385,0.3585139503550903
-0.05264481018528068,0.018768310546936305,0.359124298570934
-0.017414366607508575,0.06584167480474591,0.35888671875
-0.02478587709511882,0.11047363281260524,0.35881911609634204
-0.038590206777615405,0.15190124511723915,0.3607177734375
-0.007547217147047975,0.19104003906259268,0.3607177734375
0.0016921546609315321,0.22583007812506373,0.3607177734375
-0.012441880191526011,0.25451660156255407,0.36119289291935586
-0.020633174927865084,0.27580261230471403,0.3604802170432302
-0.0013386061689761029,0.2946472167969146,0.36092064163845083
-0.006629763797018703,0.30776977539066847,0.36149804862061785
-0.005137687890916416,0.31097412109376643,0.36149804192727764
0.009034017034144916,0.31471252441405334,0.36136276968667286
-0.005002395570294494,0.3080749511718605,0.36065013731718387
0.00010225738030940394,0.30189514160153785,0.36054787659021037
0.006611619847182889,0.29113769531245465,0.3609207018784329
0.0022715227893667874,0.2732849121093528,0.3612604788396916
0.020074705055358816,0.2552795410155777,0.3608530724514604
0.010697696587235782,0.2340698242186631,0.36054790336353865
0.00881699243595795,0.21148681640618822,0.3614303321803248
-0.006135221938949268,0.18722534179684508,0.3610906087657285
-0.022175644930932988,0.16220092773430644,0.3607177734375
-0.020802363955295142,0.1364898681640311,0.3607177734375
-0.016581659207832427,0.1123046874999382,0.3606832760041401
-0.020140306402783695,0.08857727050774612,0.3619729606091795
-0.01895347153793021,0.067138671874944,0.3607177734375
-0.03268826586711669,0.046844482421850867,0.3607177734375
-0.016123252976079958,0.027465820312458485,0.36085313938477326
-0.006629552957051387,0.010757446288994433,0.361362555500023
0.04773936752948016,-0.005493164062517379,0.36065008377053515
0.11796596965682153,-0.020828247070333258,0.3607854664511366
0.10506969755949717,-0.0341796875000309,0.36126042863969926
-0.06835304980151898,-0.046234130859418444,0.36359975488269514
-0.11625735107248159,-0.05599975585938417,0.36370182819637104
-0.06003623835561539,-0.06599426269532746,0.36332894266814847
-0.03513003355704864,-0.07781982421876737,0.36383724099696485
-0.022668816329258126,-0.0849151611328429,0.36387156775033996
-0.029178145329524535,-0.0936889648437751,0.36285400390625
-0.01898949170428094,-0.10131835937501159,0.3658380419317851
-0.007765262478412525,-0.11230468750001545,0.36573603220476997
-0.008477195394706923,-0.11955261230470246,0.36546513297691385
-0.003916683565985446,-0.12908935546876546,0.3658380318917868
-0.015190679388951488,-0.1386260986328574,0.36590576171875
0.008138141313301345,-0.14587402343753186,0.3682116949281518
0.004000808709785957,-0.15716552734375772,0.3680077758740788
0.007341320213366974,-0.1657104492187809,0.368889776317621
0.007170998339512994,-0.1758575439453458,0.36834716796875
0.036264051338733116,-0.185546875,0.36865234375
0.04164055731705911,-0.19363403320313755,0.3681097454411213
0.029737563981836253,-0.20233154296876737,0.3714330751613275
0.02107394088301806,-0.21194458007816844,0.37055115838445724
0.025245006206700372,-0.2194213867187664,0.37109375
0.034840751092731256,-0.22453308105468703,0.3707208075784646
0.016208623079613453,-0.22430419921875,0.37085634420570723
0.0007125989028145235,-0.22087097167968026,0.3711615233336196
-0.01480084467065946,-0.20935058593746525,0.3721111230841437
-0.019242770735563793,-0.193939208984305,0.37109375
-0.0344675409379599,-0.16983032226555644,0.37346737287637866
-0.05459257148360813,-0.13885498046870753,0.37370475859068253
-0.06851184241064798,-0.10345458984364186,0.37353515625
-0.04548840330955879,-0.06065368652327385,0.3734673628363803
-0.015173997932160468,-0.017242431640458453,0.3733317659691436
-0.049794389473996746,0.026626586914118018,0.37156850134860087
-0.049726791840329354,0.07141113281260716,0.3704155949838863
-0.047556589364768545,0.1138305664064122,0.3713311189809645
-0.01642867975731106,0.15426635742192182,0.37116156014694185
-0.01946343650638632,0.18920898437504247,0.37089030951915897
-0.014987521701388888,0.2206420898438166,0.3716362847222222
-0.018395314578675402,0.24559020996101136,0.3682454527483488
-0.02478709193483285,0.26443481445317035,0.36858452021639404
0.00040714200166706155,0.27893066406252315,0.36834716796875
0.004645466945697899,0.28656005859376643,0.3682115075148542
-0.013665227182597914,0.29151916503906106,0.36556674445067394
-0.00891775385654125,0.28869628906248646,0.3662109375
-0.003746962418671679,0.28266906738278785,0.3661430972330581
0.0021705137155681757,0.2719116210937201,0.363057534747086
0.0313483645383951,0.2595520019531067,0.3637016842897299
0.012766419782304379,0.2433776855468277,0.36387115611042936
0.010884216324636767,0.22331237792960784,0.361260271346394
-0.0169713650794756,0.203857421875,0.36081973965787073
-0.015359992243039394,0.1797485351562191,0.3609892148252369
-0.030518210644931522,0.15548706054681416,0.35834423088110606
-0.03468846440206041,0.13282775878897995,0.3587851440895604
-0.018259764564776352,0.11138916015618724,0.35858154296875
-0.035519297668768324,0.08827209472654174,0.35620801045234834
-0.014392949669107024,0.06881713867181417,0.3564453125
0.007578055001176053,0.047760009765600867,0.3563774320730735
0.012632359034788647,0.02929687499996428,0.35308837890625
0.10040472959099818,0.014572143554633191,0.35315626602651845
0.1304619838444666,-0.0003051757812789647,0.3541054106304472
0.03887180864335781,-0.012207031250015448,0.3508506540970399
-0.09789533582064293,-0.024719238281278966,0.3506812826763123
-0.08648150123117601,-0.03639221191410233,0.35149459949306744
-0.05918692981912905,-0.04623413085938948,0.35101926917121296
-0.03850287552773386,-0.05470275878907553,0.3489852793494785
-0.026482804101743015,-0.06347656250001449,0.34881591796875
-0.014069859184585266,-0.06988525390628476,0.3488838318623484
-0.010019636951110689,-0.07934570312501255,0.3470183701014809
-0.012139110663073409,-0.08674621582031974,0.346340084565367
-0.012884824826182587,-0.092468261718778,0.34576416015625
-0.010799776594243745,-0.10269165039065106,0.346543832939475
-0.0026269353743144813,-0.10955810546876737,0.34647589561924336
0.014580503526409294,-0.11962890625002318,0.3441024133028186
0.006323498675983188,-0.12695312500002898,0.3434586285467596
-0.005425223395581099,-0.1383972167968895,0.3442048681364256
0.007156075555729031,-0.14816284179689335,0.343763817714678
0.02104102307603133,-0.15838623046877318,0.3436279296875
0.01985431705784945,-0.16784667968752318,0.3442716542035503
0.039251534756910775,-0.17761230468751546,0.34393310546875
0.03887403584958137,-0.1875305175781414,0.34352662610700935
0.018310546875,-0.19332885742189526,0.34332275390625
0.02288818359375,-0.19989013671875,0.34088134765625
0.024667246151271534,-0.20477294921875,0.34132245831799424
0.008730109639313921,-0.2021789550781086,0.3413557576449121
-0.005240030611247859,-0.19226074218745365,0.3416609267328339
-0.015750541474498572,-0.17547607421869013,0.34186485248024717
-0.04294665397223743,-0.15151977539059314,0.341458446745145
-0.06381497736816774,-0.12344360351554293,0.34183011408691777
-0.04326620535739061,-0.08850097656236097,0.34135572417825566
-0.03743541791323378,-0.04913330078114573,0.3414237083518387
-0.039452269458299646,-0.007629394531114832,0.34393310546875
-0.03443345849113347,0.034332275390728306,0.34400110302899717
-0.008508436522016233,0.07560729980474012,0.3436279296875
-0.01719353685004142,0.11505126953134076,0.3436279296875
-0.025124708623158947,0.15029907226572878,0.34651052691924095
-0.016547503134411293,0.18127441406257144,0.3463065007718387
-0.012833942115977662,0.2083587646484708,0.34644252601232367
-0.009171826047646025,0.23010253906254055,0.3490530761097605
-0.014954531941093143,0.24536132812504635,0.34929022755743083
0.0103438318353253,0.2548217773437568,0.3515625
-0.005138390690812023,0.2606201171875077,0.353224434266729
-0.0204302515069322,0.26214599609373745,0.35369873046875
-0.01017089454193433,0.2568054199218489,0.3563442398394763
-0.013581316225418083,0.24993896484373263,0.35888671875
-0.010882248485012014,0.23872375488278572,0.36142917758053916
0.02100865579558601,0.22308349609370656,0.36329526851463545
0.00033919966136590637,0.20553588867185085,0.36566863369773184
0.004731278809156596,0.18493652343744207,0.3682791168618541
0.023837738164283865,0.1634216308593359,0.3711618044535677
0.006968541778481746,0.14068603515619013,0.375164206176427
0.012494642054635184,0.11672973632809314,0.3785189610905622
0.008610757488971797,0.09216308593744015,0.38299560546875
-0.025499759444329615,0.07057189941398574,0.3857421875
-0.02638125956130389,0.04852294921870462,0.39055692881309806
-0.026312032101289858,0.02998352050778595,0.3955078125
-0.031415498658799654,0.010375976562455588,0.4005596450207897
-0.008358293370927021,-0.006484985351624775,0.4045621538369379
0.0010516964908701143,-0.02380371093753186,0.41036050372068017
-0.010765652314150845,-0.03623962402345247,0.41575032608307755
0.032561551051661176,-0.04837036132815686,0.41978569246620806
0.12602369895228582,-0.056838989257834226,0.42602789058454066
0.12052045138502072,-0.06835937500001545,0.43212890625
-0.0312152324905964,-0.07568359375001545,0.43684274558252656
-0.11328572917776927,-0.08560180664064142,0.4453195694973101
-0.058776461231560974,-0.09140014648438176,0.4501696415635823
-0.04046852140932186,-0.09735107421877896,0.45651023835630317
-0.025904543719708087,-0.10787963867189672,0.4639353021935584
-0.01936095489943949,-0.11444091796876545,0.4710224665491984
-0.023039401024635402,-0.12100219726563369,0.47756740742254633
-0.005912708808391414,-0.13092041015626932,0.485570115855262
-0.009578973069263752,-0.13809204101564526,0.49242025593655747
-0.006407275766537327,-0.145721435546889,0.4994393223319142
0.002730263687726382,-0.15449523925782166,0.5084909863360507
-0.008903369885998848,-0.16113281250002992,0.515578170771683
0.0026991279804525117,-0.17166137695314526,0.5232075719962767
0.020157899826035584,-0.1783752441406472,0.53070068359375
0.010580421043149588,-0.18783569335939382,0.5388071152465157
0.014190673828125,-0.19439697265626737,0.5472157575344031
0.023837788364276226,-0.20156860351565686,0.5548777251660525
0.011666374007398521,-0.2088928222656395,0.5631530898262529
0.021631848515596783,-0.2139282226562587,0.5719675756093806
0.03217978681833948,-0.2194213867187664,0.5800028303691606
0.02812650740531174,-0.224609375,0.588482739910003
0.024107290359044794,-0.22171020507810665,0.5970601712987579
0.03523156471083951,-0.21492004394528788,0.6068258029920895
-0.00015746732977551907,-0.20507812499995173,0.6146597390573243
-0.017446976521243857,-0.18508911132809508,0.6236104843474959
-0.0373208180286631,-0.16006469726555644,0.6318859862210513
-0.04754090521448105,-0.12817382812486677,0.6417164796485412
-0.060611488411560624,-0.08911132812489284,0.649992004948735
-0.04581985543915221,-0.04539489746087523,0.658637530951037
-0.023584641526356108,0.0036621093751235817,0.6673546689129211
-0.05271102397249799,0.05249023437518537,0.6763377329568729
-0.034501041064800834,0.10101318359387358,0.6841717459953983
-0.029417120710179722,0.14869689941411704,0.6927490234375
-0.028040288921884992,0.19104003906260428,0.700615382003127
-0.01054293001705906,0.2313232421875502,0.7088228093430882
-0.018594150047061237,0.2664184570313263,0.7156408214305607
-0.01091992859777853,0.29525756835944983,0.7249971458293459
-0.019173986708763652,0.3175354003906762,0.7327593260283516
-0.014021955007273972,0.33294677734376543,0.7391717088072475
-0.010562680366557655,0.345458984375,0.7472067761537307
-0.008476686701464595,0.34538269042968606,0.7545310015970708
0.0026499169298220696,0.34515380859375,0.760771000955774
-0.0018348799267724003,0.3401184082031144,0.7679909576725228
-0.01637519668757345,0.33081054687495465,0.7742992022447794
-0.005714000513324519,0.31341552734369205,0.7810813213391491
-0.00823974609375,0.2960205078124739,0.7868796678762152
0.0032424190491546915,0.2754211425780989,0.7939669727918384
0.027817220244842844,0.25177001953119305,0.7988859125515483
-0.000985792270259481,0.22888183593740732,0.8069530275718654
-0.020019110239440262,0.20446777343743822,0.8115306676372718
-0.010004565240677443,0.17982482910151543,0.8169234651857742
-0.022956455580607653,0.1547241210936892,0.8235008017862153
-0.0250083768389185,0.1306152343749691,0.828857421875
-0.01300203176363161,0.10772705078119786,0.8336719556948141
-0.01953125,0.086212158203041,0.838627233554219
-0.02459868467776395,0.06835937499995076,0.8439838569896944
-0.00976350154041361,0.050125122070295604,0.8484932284148652
-0.02150847701931958,0.035552978515583485,0.8539181204905297
0.047793235465990624,0.021667480468703655,0.8586280576104565
0.10954862101722936,0.0091552734375,0.8639163186990793
0.09802099308980038,-0.0012969970703207068,0.8681567955494001
-0.041669101031714284,-0.010375976562532828,0.8725658640472701
-0.11578938341577565,-0.018997192382834222,0.87554931640625
-0.059823730083200084,-0.028991699218768343,0.88090585617505
-0.027017281725531573,-0.03601074218750772,0.8827369041692218
-0.019563150420506346,-0.04165649414063755,0.8876880288160641
-0.016666241171546144,-0.05119323730470343,0.8900611095325655
-0.016987355449728837,-0.05920410156251255,0.8930491133573346
-0.007845702942949352,-0.06446838378908301,0.8972851257551782
-0.004122192286450123,-0.072784423828153,0.8998950466794
-0.0038624474964256274,-0.08087158203125773,0.9025732897904752
-0.0014734500363403325,-0.0878906250000222,0.9056250409096436
-0.001981278158557586,-0.09681701660159871,0.9079980981994551
0.011546610217146213,-0.10498046875002318,0.9097973495197641
0.010699436853566273,-0.11222839355469763,0.91217041015625
0.011749267578125,-0.12176513671876737,0.9146801687130923
0.019007555334168497,-0.128707885742215,0.91705322265625
0.021540521346478506,-0.13732910156251352,0.9177319332189205
0.026818832797046888,-0.14503479003906974,0.9193261778186812
0.02295654928725645,-0.15075683593751352,0.9196997259867693
0.03197757289062395,-0.15640258789065106,0.921904335535713
0.03951526375286319,-0.1631164550781414,0.92254638671875
0.015411376953125,-0.16616821289062644,0.9239722170442694
0.02979135829147782,-0.1608276367187336,0.9246826171875
-0.0004837672668545909,-0.15357971191404945,0.925087821469496
-0.029599490581755584,-0.1406860351562075,0.9251561972030025
-0.037675974593608774,-0.1211547851561689,0.9246142280673294
-0.042627201313805034,-0.0936889648436718,0.9245142263399313
-0.03501362814611827,-0.061111450195262776,0.9246142213740012
-0.0543738986523816,-0.021820068359275555,0.9247510163476689
-0.05094066609327601,0.019302368164223257,0.92498779296875
-0.028696998502157327,0.06439208984375,0.9240354121387647
-0.030199298472933785,0.10963439941412091,0.9221728017373371
-0.03817849825016808,0.1545715332032341,0.922072860249916
-0.03660264190687798,0.19515991210952272,0.9196314606932476
-0.026058319676794412,0.23254394531258882,0.9196314673865723
-0.02251942450475792,0.2667999267578516,0.917190067829904
0.0021834385396320485,0.29571533203131567,0.9162690653405082
-0.024056186768886233,0.31822204589851427,0.91461181640625
-0.00901840818384596,0.3350830078125328,0.911628491220577
-0.0012392051681027944,0.3466033935547056,0.90972900390625
-0.002388676180136182,0.35247802734376543,0.9074558947971741
-0.008034418093292061,0.35491943359375,0.9044411678442079
-0.00769500926528103,0.3494262695312394,0.9027784069509911
-0.004154097726955612,0.34339904785152026,0.8992531996429837
-0.009426222865336474,0.3295898437499633,0.8969800738005771
0.00152587890625,0.31394958496091674,0.8952488300805211
-0.004664656728668369,0.294189453124945,0.8922655249748448
0.0015102165092756737,0.2722167968749131,0.8885349495063494
0.012798805469416391,0.249633789062472,0.8856201171875
0.006256103515625,0.22636413574215708,0.8831787109375
0.0103759765625,0.20233154296867856,0.8779222498694307
-0.012841918894523612,0.17570495605461076,0.8757860160540089
-0.0029237444904469077,0.15441894531244207,0.8711398965084549
-0.03928057377800717,0.13061523437495365,0.8675462632669306
-0.029651909411649784,0.11077880859369883,0.8634107713297334
-0.026310579648233492,0.09056091308591191,0.8591010419194097
-0.022726077784928383,0.07232666015621138,0.8556443977581883
-0.024255360250523567,0.05661010742184459,0.8508985743384835
-0.0019338040277213852,0.041809082031210414,0.8457105894038975
0.025397947170573035,0.026855468749984554,0.8434685206221916
0.1121489336633855,0.014648437499969105,0.8380812015659818
0.12258723351377991,0.0022125244140147084,0.8333665489936024
0.003418980781831707,-0.0091552734375,0.82892593482181
-0.1022214789544677,-0.017395019531265446,0.8234327741059758
-0.08035452213074934,-0.028991699218777034,0.81878662109375
-0.051484286808631236,-0.03829956054690686,0.8140719384013766
-0.029882113180673037,-0.04852294921876641,0.8090895224272241
-0.022676689361123943,-0.0559234619140765,0.8063365281838807
-0.03263184107794284,-0.06713867187502896,0.8015222219373178
-0.005063192778580406,-0.07606506347659002,0.7963717163155484
-0.016127791055214592,-0.08789062500002993,0.79230486784514
-0.014770021876591119,-0.09895324707033784,0.7876896949202838
-0.001740447051568192,-0.10787963867190106,0.7823336102980483
-0.003241918722536123,-0.11978149414064142,0.7771146385827644
-0.000286380904864885,-0.1315307617187809,0.7725679719113919
0.004789962597867722,-0.14381408691410233,0.769173425138223
0.01563921128264965,-0.15594482421877898,0.76409159644986
0.014900511731468018,-0.16784667968751546,0.760292357434593
0.01269907816860908,-0.1797485351562722,0.7556461441823774
0.026668595939305876,-0.18890380859379055,0.7526629428233352
0.020285555054759905,-0.20004272460938996,0.7472074588735927
0.03690399746885992,-0.20820617675781974,0.7427978515625
0.02611651819890544,-0.21453857421876546,0.7395026304901918
0.029334615352761797,-0.21934509277343606,0.7355044756865405
0.023762490052125544,-0.21926879882812597,0.729812466115671
-0.004341050857632291,-0.21232604980466505,0.7262497694548677
-0.02062524834940846,-0.19927978515619882,0.7225876567332036
-0.041229519796158055,-0.1773834228515263,0.7177734375
-0.03379404782756021,-0.14862060546867661,0.71319580078125
-0.0493544919786714,-0.11367797851555114,0.708885499091018
-0.038025133933032994,-0.07385253906238703,0.704681628073658
-0.049033955000373795,-0.02891540527337909,0.699730192186877
-0.06604444260567999,0.018463134765749546,0.6955949412096339
-0.029968644577315854,0.06538391113298483,0.690033150413658
-0.01744829176101681,0.10955810546886104,0.6852496401878357
-0.021854380052769358,0.15319824218755407,0.6799623228590952
-0.026569271911771993,0.19363403320321865,0.6746750256102912
-0.020191244332938053,0.2278900146485606,0.6684722210977493
-0.020599365234375,0.2572631835938118,0.664230408927676
-0.009624661753806623,0.2803039550781472,0.6587372381718444
-0.002014257878883354,0.2983093261719223,0.6538544189785042
-0.008052836469730627,0.3133392333984853,0.6492767755664225
-0.010631534673304266,0.32073974609374806,0.6428986659942829
-0.0046883996507640574,0.32028198242187594,0.6365280295273831
-0.004611963472144381,0.3179931640624826,0.6318511742010775
-0.009632091352362841,0.3083801269531105,0.6268997115409451
-0.007339486240391085,0.2987670898437104,0.622322078168867
-0.006694796211172362,0.28266906738275577,0.6165847848600327
-0.006855026213693698,0.2644348144530777,0.611633282039877
-0.012020108239320374,0.2450561523437249,0.6056670801218444
-0.011936192262140537,0.22338867187493627,0.6000060673716258
-0.00689692312557038,0.19844055175772127,0.5946884526753534
-0.006836000417312067,0.1734924316405917,0.5897674245960315
0.016727685959741872,0.14854431152340708,0.58502197265625
0.017044201918796114,0.12237548828118627,0.5799713583218904
-0.008323643664259731,0.09803771972648284,0.574951171875
0.004596782995058452,0.07675170898431996,0.57037353515625
0.02457457194911617,0.05409240722651833,0.5655898073971696
0.02119055378722675,0.034179687499953655,0.5600662589538593
0.019084675905922714,0.01571655273430259,0.5555876902426877
-0.018829855734999935,-0.0006103515625308954,0.5499267578125
-0.027648742383937736,-0.015335083007843638,0.5454178314938594
-0.020793398237004157,-0.029602050781278966,0.5418850808006095
-0.01434326171875,-0.04127502441407843,0.5380168000653124
-0.021820068359375,-0.05371093750003089,0.5333098247447968
-0.0032154047609727044,-0.06591796875004634,0.5288009051194765
-0.0039549961985933775,-0.07812500000001352,0.5253367811596873
-0.010960185643363813,-0.08491516113282843,0.5207673437727033
0.04651870456471633,-0.09750366210940686,0.5175396316473915
0.12906741137968808,-0.10894775390629055,0.51361083984375
0.1146867841347527,-0.11657714843753186,0.5085218057834503
-0.022693467871223998,-0.12916564941407843,0.5065230530082343
-0.09745000835969254,-0.14144897460940492,0.5016402371615641
-0.06875927314298756,-0.1528167724609795,0.49872597712260164
-0.04053470507658295,-0.161437988281278,0.496688664061472
-0.03613318331059441,-0.17265319824220246,0.4921110206493903
-0.024321741371061606,-0.18493652343753283,0.4888916015625
-0.01133014785879024,-0.19721984863282746,0.4865877232060161
-0.014807524616021436,-0.20874023437501737,0.48305460103285064
-0.007332802948345703,-0.21675109863285233,0.47882080078125
-0.011386050568006586,-0.22903442382815492,0.4764481685180158
0.0012658027963420278,-0.23674011230469377,0.47400676561467214
0.002071787067828942,-0.24810791015626932,0.4718017578125
0.00415426506025404,-0.2564239501953545,0.4691239598080081
0.002899169921875,-0.2653503417968822,0.46722412109375
0.004613891151741117,-0.2745056152343895,0.4643399576223155
0.012862382083826415,-0.2828979492187645,0.46169216247870953
0.02095834536528453,-0.28854370117189526,0.4579612389569309
0.01881769729737056,-0.29464721679688416,0.45545101186689596
0.025245806059881373,-0.29685974121093606,0.45281205526824364
0.0425376177576639,-0.30181884765625194,0.45013427734375
0.029257996780788543,-0.30220031738280817,0.4469837761502769
0.03345713895912073,-0.2975463867187249,0.4444047516467504
0.0044639605139861396,-0.28579711914060035,0.4417958079490167
0.01805472772424551,-0.2688598632811882,0.43985701404224103
-0.005206120517757612,-0.2431488037108984,0.4370805429367504
-0.0362217729068589,-0.20996093749990732,0.4351417021766774
-0.06553359913734988,-0.1683044433592041,0.43219773713008636
-0.046371799312875876,-0.12268066406236869,0.42927449463949735
-0.05250055381968051,-0.07049560546868242,0.42551370212350637
-0.04678024986090022,-0.017242431640490795,0.42259961611117136
-0.03130466377350319,0.036468505859580655,0.42032569376224865
-0.055227539448034706,0.08758544921875,0.4180908203125
-0.04072050193414746,0.13854980468755793,0.41487158863890733
-0.03498726478450762,0.1832580566407341,0.41093406873025257
-0.034962183196036424,0.22453308105483957,0.40740966796875
-0.015441108734067302,0.25817871093757916,0.4058149280624231
-0.013866642930505234,0.28816223144534386,0.40259571981549275
-0.02566919947170642,0.3112792968750521,0.40072550578884863
-0.01878315635735808,0.3275299072265794,0.3969945119871452
-0.01807424548049278,0.3387451171875058,0.39266267784772835
-0.022962345712806212,0.34141540527345077,0.39069387773340686
-0.0029776291601620016,0.3421020507812384,0.3888235967734352
0.003479883410065295,0.3368377685546803,0.38587995635347017
-0.005768715156127581,0.3305053710937191,0.3839111328125
-0.005867533837095606,0.3182220458983897,0.38095787742103704
-0.01859097406106392,0.30349731445305694,0.3784868632167428
-0.011074882581272157,0.28511047363278885,0.37628173828125
-0.006861575639055459,0.26580810546869305,0.37384033203125
-0.004818802492343803,0.2430725097655352,0.3704144939307589
-0.005512889312060345,0.2191162109374691,0.3677072720385968
0.00042330807184035924,0.19493103027340708,0.3661420262999307
-0.0032240441793378078,0.17333984374993627,0.36299183299972027
-0.0159183516755172,0.148773193359291,0.3610918671121552
0.0019541517571282727,0.12542724609368627,0.35858154296875
0.0030222803781835804,0.10459899902340347,0.35627798589221676
-0.0055570920768526705,0.08331298828120269,0.35362980253535076
0.011163351697586655,0.06523132324216771,0.3533641040265033
-0.006777771775203988,0.04974365234371138,0.3510210830642274
0.009672308237994401,0.03540039062494786,0.34905215577660076
0.03930379462022173,0.01922607421872007,0.34857968350756335
0.02087969202040786,0.007553100585923501,0.34630556705202253
0.010203606529021135,-0.0027465820312731716,0.34535047207590075
-0.0024171412480386237,-0.013046264648479498,0.34346065662637676
-0.0238279474928822,-0.02471923828125,0.34149169921875
-0.013472484319719844,-0.031738281250015446,0.3417279169466084
-0.02753993223158901,-0.043334960937527034,0.34111756203743837
-0.020510576511453816,-0.05195617675784002,0.338912363475295
-0.022902835297595334,-0.06378173828126449,0.3391485644698305
-0.0023388911764044714,-0.07080078125001545,0.33856749288836024
-0.01949155184762124,-0.08285522460940493,0.3364709371452985
0.027664394741039888,-0.09101867675783422,0.3363037109375
0.09879554212735131,-0.10192871093753379,0.3363037109375
0.133011636333662,-0.11489868164066121,0.3340692591676594
0.034549045641861675,-0.12680053710940686,0.3347088438578584
-0.12203178400737885,-0.1387023925781395,0.33416748046875
-0.08137713609388829,-0.151672363281278,0.33416748046875
-0.05038318683396438,-0.1627349853515975,0.33355712890625
-0.02414338749877786,-0.17242431640626932,0.33454165781005574
-0.037985152987378645,-0.18280029296876546,0.3333209580317121
-0.02665765401472775,-0.1947021484375222,0.3337641536664018
-0.016297774915817072,-0.20355224609378475,0.3338623046875
-0.008254304090950768,-0.2117919921875087,0.3343346263565758
-0.010134412535662333,-0.22163391113282746,0.3339313229808822
-0.014337840119783844,-0.2285766601562664,0.333931326327548
-0.0030118086601594535,-0.23498535156252318,0.3340693796476543
0.00517345705737746,-0.2409362792968895,0.3341965429164951
0.004252469628009239,-0.24368286132812644,0.3343345928899074
0.011932818822814712,-0.24810791015626255,0.3343345861965757
-0.0016929779407510019,-0.25222778320312594,0.3340984420953755
0.01714989297842758,-0.25283813476562594,0.3336952123463307
0.024532127857268916,-0.2566528320312616,0.3363727560042122
0.029178811316063133,-0.25878906249999906,0.33640174147862123
0.027198540503951218,-0.25833129882812406,0.33653983495870965
0.03192763561352133,-0.2555847167968605,0.33599853515625
0.04031214509274488,-0.24940490722653788,0.3382038240783763
0.03882964567154847,-0.24383544921875,0.33850900320628263
0.017516297687898547,-0.2261352539062249,0.34108854309636344
0.0009187133697549761,-0.20278930664055259,0.3411865234375
-0.019021356984879917,-0.17211914062487835,0.3443362415111288
-0.04102293010259831,-0.13183593749989475,0.3437660800609055
-0.05220209145047594,-0.08827209472649733,0.34543012272722434
-0.04778316534779638,-0.03646850585924273,0.3484416603074613
-0.04104314061874958,0.016937255859580655,0.3485798274142045
-0.05639711890287358,0.07171630859388517,0.35071606122961685
-0.0457072752674673,0.12489318847672784,0.35369873046875
-0.026029186949084713,0.1774597167970092,0.3558349609375
-0.011749267578125,0.2277374267578738,0.3581093886329718
-0.028228759765625,0.2713012695313427,0.3594395344302618
-0.03518727660602388,0.3073120117188562,0.3626179334316968
-0.01552941051706568,0.3385925292969455,0.3660036115398941
-0.0005152192341749103,0.3616333007812751,0.36801326440635007
-0.006955770900938915,0.3793334960937799,0.37109375
-0.019897052309581977,0.39001464843752315,0.3739498684101656
-0.0074852770523373205,0.3962707519531332,0.378348846709975
-0.007776093962997052,0.3954315185546803,0.3812741273201706
-0.00213623046875,0.3884887695312326,0.3858399770811672
-0.006990395507624073,0.3804779052733897,0.390152912597562
-0.016689348227111867,0.36605834960933153,0.3937172591646957
-0.0005209537463677538,0.3488922119140299,0.3981161169845316
-0.0069355971981500605,0.32897949218744016,0.40316581433239973
-0.016635719577404826,0.3052520751952821,0.4073405225020626
-0.01708984375,0.2815246582030661,0.41266680506335324
-0.006791293979246702,0.2573394775390154,0.41778564453125
-0.001094440109324222,0.23315429687493144,0.42236328125
-0.005723141931557004,0.20675659179684508,0.42827139843261963
-0.011582416196909738,0.18295288085931416,0.43487548828125
-0.008809445704054045,0.1591491699217852,0.43975830078125
-0.008335333568701309,0.13702392578119788,0.4465413368621033
-0.0022257454181858513,0.11711120605466578,0.45210367651128475
-0.008858220014695358,0.09918212890620172,0.45905355058668146
0.011450221215714873,0.08079528808586943,0.4665161305500599
0.01648563666632043,0.06622314453120945,0.4721884048314065
0.00949504203209075,0.050964355468734554,0.4791259765625
0.004030299530769504,0.03875732421871911,0.4866169931470469
-0.0068460621687064524,0.027923583984337346,0.4935384306012674
-0.02193006657820359,0.018615722656222966,0.5014730042604297
-0.022867773951010965,0.00892639160155526,0.509033203125
-0.020662332755570105,0.0009155273437210353,0.5155802992512813
-0.030247005197086903,-0.008239746093759655,0.523681640625
-0.008488242739265043,-0.019226074218766414,0.5318238380975369
-0.01643860596870136,-0.027008056640666033,0.5386761401250486
-0.004341676684181549,-0.037231445312515446,0.5473878230212946
0.015713493881559307,-0.04585266113282553,0.5552531842804258
0.09348463749647899,-0.0537109375000309,0.5625774097237695
0.1255593574083154,-0.06446838378908133,0.5699708609537715
0.012512946644517605,-0.07263183593751642,0.5778362121729259
-0.12633502088563825,-0.08514404296876545,0.5856040783575082
-0.08622123436133247,-0.0967407226562693,0.5929283104941955
-0.04635980820846751,-0.10513305664066845,0.6005577184121257
-0.02833389527873049,-0.11703491210940686,0.6093385869350062
-0.007053665902086061,-0.12916564941408495,0.6169679915062664
0.01328279026955318,-0.13580322265628378,0.625097428141236
-0.006817746027512062,-0.14877319335941844,0.6317138671875
-0.012554435263127996,-0.1582336425781414,0.6391073418441662
0.0033287948258449436,-0.16815185546877318,0.64697265625
0.010659532881267733,-0.1754760742187645,0.6543661376000021
0.005708496921043357,-0.18165588378907263,0.6613570719208309
0.010507979110424297,-0.19027709960939915,0.6691942910653923
0.004126424145634462,-0.1963806152343895,0.6770596155112647
0.0028224241766641013,-0.19897460937501835,0.683940129933331
0.03274283158328932,-0.20606994628907072,0.6908899103020711
0.020197691685044837,-0.20980834960937403,0.69915771484375
0.017311717667291216,-0.21331787109377318,0.7058155186820797
0.01675664968079036,-0.21423339843750097,0.7130984931199678
0.03181421542871926,-0.21446228027343703,0.719645780006222
0.04624880933648677,-0.2142333984375,0.7276083585666645
0.018512419442745866,-0.21125793457029368,0.7349325806633303
0.016632080078125,-0.2096557617187191,0.73974609375
0.010487209701082372,-0.1976013183593605,0.7477779215237744
0.005201421798707337,-0.18218994140619593,0.7529793332824716
-0.030253790562433602,-0.15739440917965322,0.7600263209124735
-0.054646705479866636,-0.1269531249999044,0.7655608966203475
-0.056520077085870764,-0.08804321289048742,0.7718588702745727
-0.036301587544927995,-0.04364013671863414,0.77728271484375
-0.04812771967484708,0.003967285156311791,0.7823735059037025
-0.051956019464524605,0.054626464843879376,0.7885463611020406
-0.05528568275016558,0.10581970214863301,0.7936650298899602
-0.026800047960649276,0.15609741210955894,0.7990195315391586
-0.021271999924862114,0.2031707763672459,0.8046791955829351
-0.017082976391309533,0.24597167968759656,0.8091874860350264
-0.008856980074928904,0.28305053710949957,0.8136679790791509
-0.027132867203259862,0.3143310546875367,0.8175381406407599
-0.011936588842032171,0.339431762695341,0.821602556084985
0.003308400243066601,0.35827636718753186,0.8270263671875
0.001560558732910475,0.36979675292971503,0.831298828125
-0.02643238657811454,0.37399291992187406,0.8343228621561664
-0.011492630167526283,0.3736114501953118,0.8387617795682983
-0.004730224609375,0.3695678710937191,0.84239619862864
-0.00973093848001133,0.3574371337890475,0.8457808359237047
0.014079792089465965,0.34439086914058736,0.850261432714466
-0.004667877894727551,0.32768249511711944,0.8539094927854899
-0.017249479719281004,0.3060913085936988,0.8560874494862291
-0.016104929979606792,0.28488159179684314,0.8604293001970365
-0.0010610370357421184,0.2604675292968161,0.8631064991483073
0.008017765083145872,0.23651123046865732,0.8650763434224373
-0.0028364600939837347,0.21148681640625,0.8679893183416355
0.01714545529929697,0.18798828124997102,0.870874703346172
0.010979684992939236,0.16448974609368822,0.8724281554337786
0.010112125413265545,0.14396667480461944,0.8755911731582162
-0.0029900854510559564,0.12451171874995366,0.8777549567283056
-0.02215995074061072,0.10650634765622875,0.8801688433436072
-0.031065711819495256,0.08972167968745752,0.8831092943908585
-0.02825625597367647,0.07568359374998455,0.8852455215129503
0.0018035718661287873,0.06347656249998263,0.8879921001975303
-0.004952992086501617,0.0557708740234025,0.8878952008295211
-0.014960082386638499,0.04653930664060859,0.8906692456021388
-0.013247703822979986,0.03959655761717833,0.8902671871862138
0.01736202809766471,0.029602050781236483,0.8924034210016356
0.0968530869679693,0.02395629882809893,0.8928748959642003
0.10723456544938925,0.019226074218744206,0.894775390625
0.02214140351766233,0.01449584960936631,0.89447021484375
-0.11274876330784936,0.008544921874983586,0.8951500164195497
-0.073096963947962,0.0012207031249594495,0.8971894345336051
-0.04777997932178805,-0.007629394531257725,0.8969810778003778
-0.02682701204883118,-0.01350402832031974,0.8982291198401241
-0.01618797749694741,-0.02014160156252993,0.89752197265625
-0.011007407100959647,-0.030746459960959222,0.8979933907254822
-0.005166900938645023,-0.03875732421877896,0.897355737061584
-0.005943473035795757,-0.04791259765626448,0.89752197265625
0.0026982093205668647,-0.05798339843751738,0.8974524958696221
0.0034202709215518656,-0.06607055664064142,0.8985342353813792
-0.014275157065186048,-0.07751464843752318,0.894775390625
-0.008121901616438084,-0.08621215820315686,0.8952467685342477
0.002109015380668095,-0.09765625000001449,0.895150056579542
0.016632080078125,-0.10437011718751352,0.892333984375
0.016979564411226094,-0.11413574218752125,0.8922372991936106
0.038986987501231224,-0.12023925781251737,0.889962078338292
0.012436712939091276,-0.1318359375,0.887451171875
0.01680584734467559,-0.13755798339844474,0.88714599609375
0.021453002683370165,-0.14343261718751546,0.8852725659210784
0.03513760706228077,-0.14930725097658423,0.8828040215562939
0.03366596087891242,-0.15563964843750097,0.8805287538476624
0.0283678003521937,-0.15594482421875,0.8782263781442157
0.014459267203024274,-0.15274047851560474,0.8754797927662956
-0.01771956748872772,-0.1419830322265147,0.8730383831696298
-0.019428848713059756,-0.12542724609368724,0.8679894522082826
-0.03664427108555425,-0.09956359863271716,0.86578369140625
-0.04962583296643426,-0.06668090820303135,0.8625503501886703
-0.05153418559903495,-0.028076171874949794,0.8581272825868567
-0.052579008037899604,0.01617431640636586,0.8554347157452131
-0.04565855283018129,0.062179565429835944,0.8502892736291126
-0.037071056343345204,0.10879516601574182,0.84564208984375
-0.03621940346732232,0.15609741210943584,0.8435597808579738
-0.025559566039494264,0.19989013671885233,0.8387195513364122
-0.03177868220221485,0.23979187011733089,0.8335741795003034
-0.03545423178797369,0.2751159667969151,0.8287878580750592
-0.02244715157870472,0.30471801757816075,0.8256238698175158
-0.019581818123628723,0.32989501953129635,0.82122802734375
-0.01818483940586178,0.3470611572266103,0.8158740109611317
-0.015735498210733327,0.35720825195314143,0.8113232479705402
0.0017132570635124814,0.36300659179688516,0.807259521939525
-0.009864532367651573,0.3643798828124855,0.8040526963568417
-0.015480964179728158,0.3585815429687423,0.7987841939844563
-0.014271114292646802,0.350341796874971,0.794442149167019
-0.0031293485909149213,0.33706665039057,0.7894201521738109
-0.016867658592770063,0.3207397460936979,0.7853136691376852
-0.0095835964883791,0.299758911132784,0.78155517578125
0.004119873046875,0.27725219726556805,0.7766456033397325
-0.004558947262392091,0.25291442871084047,0.7725658635117901
0.004684830431488118,0.22888183593743627,0.7691393125714429
0.026697608187065455,0.20393371582028208,0.7648401218124331
0.016581066847951176,0.17990112304681416,0.7602891948352083
-0.008852985829084725,0.15495300292959047,0.75714111328125
-0.020768217921828955,0.13061523437494305,0.7527027246423509
-0.034415235894652736,0.10871887207028788,0.7494154251285418
-0.030081303395653396,0.08972167968745366,0.74493408203125
-0.007286366283893431,0.07186889648430839,0.74249267578125
-0.02324456336515739,0.05859374999996428,0.7375402258546545
-0.024853421182096685,0.04409790039057431,0.7349329220232613
-0.01287058141554853,0.03173828124998262,0.732710605264367
-0.005227867153587581,0.021896362304672536,0.7281494140625
0.0415616763989283,0.013122558593724897,0.7250710837217885
0.11169759224355538,0.0038909912109169834,0.7226131549816226
0.12233407328910019,-0.0025939941406414135,0.7175379192253456
-0.027124229458107087,-0.0118255615234515,0.7148610013940073
-0.12135209789155618,-0.02044677734376545,0.713693342925447
-0.06123242715200496,-0.026550292968773172,0.7092550212198916
-0.0395732480883454,-0.032043457031255794,0.7054005722552574
-0.032200926034284316,-0.0405120849609515,0.7027933453971712
-0.011770873653974048,-0.048828125000015446,0.7004313488385331
-6.48433275278761e-05,-0.056076049804732395,0.6961756379645038
-0.018240862595082185,-0.06591796875001737,0.6931238834986678
-0.008392333984375,-0.07324218750001449,0.6898894914280085
-0.011736061634007467,-0.08270263671877125,0.6855641866340074
-0.012948322793959834,-0.09140014648438755,0.68389892578125
-0.00091552734375,-0.10223388671878089,0.6786412398334181
0.012499021167128971,-0.11077880859376159,0.676130129223496
0.000209989906191215,-0.1220703125000193,0.6734268865172536
-0.00022695917630900748,-0.13031005859376352,0.6680034402013207
0.017128581409204487,-0.14129638671877898,0.66619873046875
0.0278972658027894,-0.14976501464846212,0.6625629392753356
0.022426464162598428,-0.1596069335937722,0.658098419868164
0.024658086326361205,-0.16761779785156877,0.6561976507807461
0.029144287109375,-0.1728820800781395,0.6516200174086602
0.029166018685204943,-0.17951965332034,0.6487774463025779
0.039895170586363354,-0.1849365234374855,0.6441998229704534
0.024658482906257582,-0.17997741699218509,0.6414097577075898
-0.00946044921875,-0.17471313476559894,0.6365007173859728
-0.016980785944355457,-0.15937805175774153,0.6333619094435273
-0.03477251591917095,-0.13610839843742759,0.629411949977305
-0.04542322531548643,-0.10589599609370366,0.6245553284856015
-0.027779757665323545,-0.06835937499990152,0.6220005840440452
-0.039215087890625,-0.027389526367133914,0.6169956751275976
-0.06455341253270142,0.02044677734386586,0.61248779296875
-0.0676138164568486,0.06675720214859077,0.60760498046875
-0.04007390932527463,0.11337280273448604,0.6041782822750915
-0.00011746797742627859,0.15907287597662187,0.5995047702681332
-0.02533838488206493,0.2026367187500956,0.5943167886802233
-0.03291105844422877,0.2393341064454356,0.5915525931456824
-0.03284969899604235,0.27069091796878764,0.5875331568928166
-0.011792998463028549,0.29747009277346886,0.582275390625
-0.009225058117402532,0.3201293945312828,0.57769775390625
-0.003278275228883543,0.3330230712891103,0.5751865596296833
0.008313011306318301,0.34301757812501543,0.57037353515625
-0.03300207772006471,0.3452301025390618,0.5652115437766707
-0.004673418300300065,0.34515380859373357,0.5629795183396834
-0.0018310546875,0.33737182617182576,0.5580009309514734
0.00718057649765178,0.325164794921847,0.5552803123552104
-0.015921966074866498,0.31204223632809747,0.5513130205056203
-0.018214805453442277,0.2963256835936979,0.54779052734375
-0.009468384163889837,0.275421142578097,0.54290771484375
-0.001516873027984707,0.25314331054681805,0.5407016662284411
0.005956024706769091,0.23109436035147995,0.535749028888542
0.01032812593171731,0.20721435546868822,0.5326713879610397
0.01767433227747881,0.18211364746090225,0.5305351641856144
0.014788100566446137,0.15716552734369788,0.5269247608006616
0.016026972741343782,0.13427734374990732,0.5237514755048949
0.010449629988343053,0.11138916015619207,0.5211005579218975
-0.014631739309896218,0.0891113281249749,0.51849365234375
-0.02437914004005641,0.07034301757808155,0.5152581558732897
-0.014282554870456512,0.052032470703052586,0.511029737060632
-0.030958728946705705,0.03784179687495462,0.5092685272930346
-0.018139615907890216,0.021133422851547536,0.5059814453125
0.0015957372128072517,0.00900268554684314,0.504150390625
-0.01042377197330191,-0.0031280517578274646,0.5009331803376808
-0.009905354999770893,-0.009155273437531862,0.4991977131251146
0.03311356520527296,-0.020599365234396722,0.49715705005129474
0.11250710724779185,-0.027160644531265446,0.4938699747640859
0.11541137246862214,-0.0362396240234515,0.491167582111009
-0.003849034059145973,-0.04394531250001255,0.48910123672214867
-0.10429094343606515,-0.04928588867190107,0.48692078340856915
-0.06606476021500973,-0.05584716796877317,0.48658996547227096
-0.03777539734779784,-0.06515502929688949,0.4843838532702936
-0.03854418175312905,-0.07324218750001642,0.4818026668205346
-0.02971969111193523,-0.07949829101564528,0.47919587168237954
0.0015037206305159056,-0.08758544921876545,0.47698974609375
-0.0167369327979366,-0.09658813476563369,0.47644929634445776
-0.020573810092643228,-0.10711669921876545,0.47447843468387046
-0.025119864324119036,-0.1145172119141103,0.47203702508720635
0.011176626248364532,-0.12435913085938949,0.47203702174054224
0.003674866865869393,-0.13397216796877318,0.46905517578125
-0.01157734265128006,-0.1412963867187809,0.46705878240558735
0.010779492451486978,-0.15228271484375772,0.466988867205706
0.03767023338802821,-0.16067504882815492,0.465087890625
0.016648038655018703,-0.16906738281252318,0.4647127862572081
0.005105332323832785,-0.17578125000001932,0.46156564511641557
0.025618863941395953,-0.18386840820313755,0.4614766505735391
0.03453254323207103,-0.1924133300781414,0.45976002509067804
0.020751953125,-0.19477844238281106,0.4572932042589156
0.04124328128682087,-0.19989013671875,0.45668285938972836
0.024140462512638065,-0.1995849609375,0.454781862729036
0.008567214017375235,-0.19714355468748454,0.4547119140625
0.02596834958071989,-0.1876068115233926,0.45257568359375
-0.004879780420558876,-0.1696777343749353,0.45020423605027826
-0.02469391071280044,-0.14328002929683734,0.4497591395092999
-0.0517563004762918,-0.11108398437490924,0.4470125541313858
-0.055322402369787714,-0.07247924804682383,0.4441007304652783
-0.04569669645615904,-0.028381347656133177,0.44267011440735327
-0.045226277366725215,0.01831054687515448,0.4419645066898642
-0.03040970838579637,0.06683349609387165,0.4396630613596028
-0.04200640480658709,0.11512756347662381,0.4372469123980576
-0.03155355867221272,0.16082763671885716,0.4345703125
-0.020996914017849182,0.20217895507826691,0.43438556649555166
-0.020544791151490313,0.23849487304700678,0.43280924998569836
-0.0072192254702152,0.2709197998047266,0.43006267130110654
-0.026645472150414937,0.29724121093755795,0.42708091570180673
-0.01146650943923113,0.31852722167974395,0.4255102082041726
-0.009307861328125,0.33157348632813805,0.42487469305985653
-0.008312460779761442,0.3395843505859457,0.42290362390597935
-0.00979794710047228,0.34515380859375,0.42006189950638495
0.010410984362428283,0.34385681152341285,0.4209325313254303
-0.005412583038016588,0.335540771484347,0.41785566347777064
-0.022878259055668575,0.3263092041015473,0.41717529296875
-0.011671899352971011,0.3112792968749556,0.4157194397023566
-0.004027359484683824,0.2936553955077898,0.4151341513216933
-0.0031892689726956084,0.27511596679682576,0.41236251280193476
0.007852018101729826,0.25291442871084624,0.4123625161486048
-0.006841435402957786,0.23162841796868724,0.4126676952765207
-0.0031693245165334894,0.20706176757809508,0.41259765625
-0.00863749400384612,0.18325805664056416,0.41266770196984887
-0.00495530630602083,0.15830993652334047,0.4132080078125
0.010380822534947876,0.13519287109375,0.41229248046875
-0.005075230736263652,0.11177062988278402,0.4131379520526511
0.043577788330755055,0.09002685546869786,0.41236253957526303
0.03611044606154277,0.07171630859368627,0.41470896075023933
0.0020459240328379955,0.053710937499953655,0.4152243473176384
-0.0035749621918073063,0.03646850585935859,0.41795068201947394
-0.01898082049263008,0.023498535156217172,0.41771557203807286
-0.015166111513653708,0.010299682617136811,0.419921875
-0.0194114527430372,-0.00030517578128282666,0.4232087294072447
-0.029802102762734296,-0.012588500976592672,0.42456959425192714
-0.016739414350764082,-0.021514892578145275,0.4259056402214303
-0.01076365100786967,-0.02792358398438176,0.42813680221852135
-0.012631910581522353,-0.03784179687501931,0.43236398945807464
0.028179175561854997,-0.045013427734391896,0.43497037630297625
0.08839762482257761,-0.05081176757814141,0.4370818180165113
0.12569527388214166,-0.05706787109375772,0.4398284033944194
0.053541971025719975,-0.06866455078126545,0.44464111328125
-0.10936635656569205,-0.07469177246095922,0.44708251953125
-0.07860325196125509,-0.08132934570313513,0.45182510672491105
-0.04753931554812331,-0.09002685546876159,0.4546417980626664
-0.04950660798941535,-0.09735107421877703,0.45952460721599464
-0.022112901636338955,-0.10742187500002896,0.4637723797982584
-0.028088507685957848,-0.11428833007813949,0.46703452577025145
-0.012161560098761636,-0.12390136718752318,0.4711667480147407
-0.009472771643036011,-0.13061523437503186,0.47687032366343646
-0.012592779689042273,-0.14190673828125772,0.48243364723235693
-0.01953125,-0.14831542968751737,0.4884215288529954
-0.013054251466866985,-0.15747070312504055,0.4942444800786645
0.00790635122467134,-0.16632080078126546,0.49945342518258523
0.008325768797181977,-0.17227172851563177,0.5064269200267418
-0.005272193745036476,-0.17791748046876546,0.5122954193769854
0.014155595748209076,-0.18470764160159,0.5187286719651681
0.007076933597618166,-0.18981933593751546,0.5242429166769818
0.017863340261095196,-0.19477844238281297,0.5314057223780199
0.018193042084287958,-0.19744873046876546,0.5383055671430537
0.03894499688262387,-0.19989013671875,0.5438444165434797
0.025190883923815046,-0.20446777343749903,0.5507721122630959
0.02435450355814077,-0.20309448242186823,0.5575316815218038
0.029391512021779906,-0.19699096679685665,0.5633757569034102
0.0019852171844479583,-0.18768310546870945,0.5704437180894119
-0.003460660160420809,-0.1748657226561911,0.5781677329091135
-0.01946106037350995,-0.15007019042958974,0.5828857421875
-0.034400959017406085,-0.11749267578116118,0.5893646265669041
-0.04425048828125,-0.07987976074213778,0.5947388166522959
-0.05636440858916599,-0.03814697265613318,0.6019714170732734
-0.04753866294821879,0.008621215820468186,0.6070648319194042
-0.04110417376697262,0.05722045898449568,0.614013671875
-0.052783241678589714,0.10444641113287188,0.6193664165245353
-0.0438521547045916,0.15136718750011877,0.6248811398095668
-0.026503029677852414,0.19660949707045877,0.6319488265689317
-0.024528869877882446,0.23361206054691894,0.6369720752152306
-0.017690680741013824,0.26580810546878864,0.6427001953125
-0.013133401791682315,0.29266357421880984,0.6483338122546366
-0.0156597213252923,0.3147125244141219,0.6543211316353205
-0.001114105118857435,0.32775878906252315,0.659460620032586
-0.018251198773087045,0.33462524414063516,0.6663392034283712
-0.02046009038114955,0.3399658203124855,0.6712220226217148
-0.014332343220875492,0.3341674804687423,0.6779116934138327
-0.01068115234375,0.3282165527343605,0.68359375
-0.0183928848991503,0.31791687011716213,0.6886389594687217
-0.00784127195711218,0.30151367187495465,0.695330936113793
-0.013731814123132456,0.28327941894528785,0.6999788360856766
-0.018157958984375,0.26443481445307965,0.7080780724064747
-0.008053079102986693,0.24261474609365732,0.7132199235499209
-0.007709654275852606,0.22003173828119496,0.7181950370988638
0.0068774940560032876,0.19783020019528208,0.72509765625
0.004799510636041217,0.17425537109369207,0.7308719134850553
0.0007278011332205642,0.15022277832021835,0.7372344108601911
0.013485986443776072,0.12664794921870076,0.7427978515625
0.014003866277403083,0.10734558105466385,0.7480320807281943
-0.019646894044411785,0.08926391601558155,0.7545351046096059
-0.023957177327914032,0.07118225097649153,0.7599579853389747
-0.01420181822596512,0.05462646484371428,0.7647465055237745
-0.013403745472961838,0.04074096679685859,0.7717655618792119
-0.02398027434350677,0.028686523437472966,0.7771421147108158
-0.02340426961439346,0.01754760742186052,0.7820249205174877
-0.004320358421637985,0.009460449218735517,0.7869540843418857
0.01158545998964817,0.002670288085902501,0.7921181473077695
0.006289807789226054,-0.006561279296891414,0.7977758836719355
0.07888512156030197,-0.013504028320321673,0.8032690644677264
0.11008550656723982,-0.020446777343763517,0.8085512848241806
0.055112737090006234,-0.025787353515645275,0.8128940759481436
-0.11169177908463113,-0.03143310546875772,0.8176362448085435
-0.09701320318382636,-0.03753662109375772,0.8216261534270938
-0.04280805514556307,-0.044250488281265446,0.8264386658606648
-0.012112866108135903,-0.05058288574221502,0.8311581543654094
-0.010011815792607896,-0.059356689453153,0.836181640625
-0.010247190160631015,-0.06721496582032337,0.841698606176256
0.00034034924114765885,-0.07415771484377993,0.8439279408937719
-0.014448787118439122,-0.08453369140626737,0.8480131458272906
-0.0055635176756235125,-0.09201049804690493,0.8539521895506235
-0.005176557743455754,-0.10108947753907625,0.8569098458079004
-0.011878964273115114,-0.10864257812502606,0.8610415995191688
0.0066431036077619285,-0.11825561523438369,0.8652437034968659
0.00692496818686288,-0.12512207031251737,0.8682954646560376
0.004425405248025164,-0.13427734375004055,0.8723331235054154
0.012993651711880818,-0.14129638671876546,0.8753145143181236
0.019296138345268964,-0.14747619628907072,0.8783893172728586
0.021233953352195408,-0.15335083007813755,0.882568359375
0.02214861558280445,-0.15945434570315106,0.8854793497212564
0.029003760603120547,-0.16571044921875,0.8883898313742694
0.022019432600999877,-0.16677856445313177,0.8935783015754502
0.03245463176541767,-0.17028808593750194,0.8953857421875
0.011925442770849295,-0.17036437988281106,0.8973811784166746
0.00404947258043095,-0.16571044921873454,0.900338955153944
0.007324357636621838,-0.15739440917966577,0.9024751889693658
-0.00677261790952011,-0.13931274414057576,0.90484619140625
-0.06416909144668094,-0.11688232421871911,0.9077335944503881
-0.029602198034593873,-0.08666992187490731,0.91033935546875
-0.03570546265963981,-0.04936218261706078,0.9120295757566901
-0.059544517736960505,-0.008239746093641864,0.9139310442973059
-0.04825298538405409,0.03608703613286995,0.9149874160806082
-0.03932072875029233,0.08087158203136392,0.9173583984375
-0.042971081287542706,0.1255798339845401,0.9191659996895264
-0.03356922215076621,0.16799926757827996,0.9197998046875
-0.014812738721705411,0.20629882812504635,0.9223820854970446
-0.01927290076971134,0.24108886718757916,0.922640240620673
-0.009343083314679106,0.2709960937500927,0.92193603515625
-0.024331921929145527,0.29327392578127415,0.9246826171875
-0.021937430916781797,0.3089141845703294,0.9249173423023136
-0.020916220880033542,0.3210449218750145,0.9246121631743918
-0.0045186433634128945,0.3257751464843779,0.9271240234375
-0.0006455819157182122,0.32608032226562406,0.9270535627310635
-0.009249309732726826,0.3224945068359266,0.9265608163592526
-0.015423030044205314,0.31066894531246814,0.927734375
-0.0040025205294643585,0.29808044433592157,0.9270535526910713
-0.014367176994154846,0.28274536132807576,0.9279690766881494
-0.0018077886653085438,0.26145935058585207,0.9265841493147646
-0.01719592636961666,0.24108886718744013,0.9265841526614365
0.0026292362071743854,0.21705627441403016,0.9274996833518487
0.011267873097463368,0.19226074218744013,0.9271240234375
0.014672076675461724,0.16838073730459627,0.9246121263610653
0.007182333497357289,0.1440429687499392,0.9244479355793428
0.005727842323987115,0.12008666992184507,0.92498779296875
-0.014320089403215065,0.09872436523432962,0.9223348841194637
-0.026444536649101794,0.07781982421866311,0.9230157298550524
-0.02586943384649304,0.05981445312496621,0.9212078140164582
-0.029532654314645395,0.04577636718747876,0.91949462890625
-0.01302834659854992,0.03005981445308928,0.9172647654155286
-0.004495566427889701,0.01800537109370945,0.9175930566189853
0.000457763671875,0.009765624999972966,0.9145412954598289
-0.007828783872860654,-0.00022888183596043044,0.9125461102305928
0.050217610532554253,-0.0073242187500173785,0.912006289654514
0.12723524894568436,-0.01350402832031974,0.9104329382907367
0.07902404166678594,-0.01953125,0.9079684835518411
-0.07769611136271151,-0.02082824707033712,0.9051513671875
-0.11031878592217259,-0.027160644531273172,0.902639419911073
-0.05408510814797753,-0.032348632812505794,0.90087890625
-0.041515398701114516,-0.038757324218750965,0.8990002887449738
-0.01190185546875,-0.04043579101565107,0.8959255426835788
-0.011667234100583436,-0.046844482421882244,0.8930378484794997
-0.0032863758340006804,-0.05233764648438176,0.8909721657305013
-0.0025825284628387107,-0.059509277343778,0.8872871183065887
-0.009411897461394755,-0.06958007812502318,0.88531494140625
-0.010505659870872345,-0.07598876953126737,0.8822860881760026
-0.007077219737552982,-0.08239746093751159,0.8778495803634231
-0.004412639390491352,-0.09338378906251255,0.8754787419131648
-0.005340576171875,-0.09880065917969667,0.8712062776290084
-0.0037679811546201753,-0.10726928710940106,0.86822509765625
0.02504725171143981,-0.11505126953127318,0.8634128696893275
0.015281613324752523,-0.12268066406252896,0.8606662910047493
0.019007212300917,-0.1327514648437558,0.8557834818514117
0.04042108911176763,-0.13839721679689335,0.8516978083846122
0.015011696343383405,-0.14472961425783423,0.848388671875
0.02588072549765772,-0.1513671875,0.8443507854523442
0.018966413095393653,-0.15663146972656877,0.8388576180431742
9.335190202496574e-05,-0.1600646972656279,0.8356873849068083
0.044873414941352704,-0.15686035156247682,0.8314627812934265
0.00721583362423684,-0.1470947265624691,0.8264387327939705
-0.02943936432591421,-0.13313293457028594,0.8205949719989596
-0.03835756161570473,-0.10971069335930644,0.8171194994946884
-0.04023395860773245,-0.0794219970701894,0.8138785379185515
-0.033898493927459965,-0.043640136718646694,0.809490091576782
-0.06559014273312323,-0.002059936523296297,0.8040675522073442
-0.06170209993492594,0.043334960937617795,0.7990208300455699
-0.042923828036648994,0.08872985839849398,0.793739583568936
-0.035506352764597154,0.13214111328136297,0.7890206773840462
-0.023227254408455467,0.17570495605481182,0.7841378715773899
-0.02385177575494978,0.21530151367197636,0.77911376953125
-0.010893106742944353,0.2505493164062905,0.7744429114304443
-0.009330417857102397,0.2819824218750589,0.7684100606585226
-0.01870068111993344,0.30418395996100556,0.7639256386284841
-0.006384625530884136,0.32257080078127415,0.7595118580248537
-0.006810164155622315,0.3338623046875077,0.7548635531063755
-0.01068115234375,0.34027099609375,0.7494410505502678
-0.006466516775106473,0.34034729003906394,0.7446770882007407
-0.007171630859375,0.33798217773435857,0.740989273084001
-0.009393060751716146,0.3285217285156033,0.7346287837084764
0.002817263617648167,0.3158569335937162,0.7302149629448519
-0.007852667354929541,0.3015899658202898,0.7248631654018045
-0.00457763671875,0.28350830078120365,0.7202855320297263
0.014333788980568906,0.2622222900389742,0.7155665154048595
-0.008451831012936842,0.23864746093743822,0.7103785237769377
-0.01321741482214029,0.21430969238278208,0.705168149646656
-0.01276905026179762,0.19042968749994013,0.7004714887508285
0.01787877675816957,0.16609191894521835,0.6949559589193105
0.0327245169534764,0.14404296874994305,0.69091796875
0.021537221533820188,0.12100219726559314,0.6853540929811113
-0.006001211391377783,0.09872436523432962,0.6805419921875
0.0007406372707734856,0.078277587890541,0.6760350738684746
-0.024522072799187278,0.062255859374956556,0.6714574404963828
-0.030435715327427816,0.045013427734352796,0.6658935546875
-0.02455354819314083,0.029144287109341208,0.6617140842120939
-0.03384113876521815,0.016937255859331552,0.65704345703125
-0.0035822713103517414,0.004272460937469105,0.6533328477722655
-0.019497917206437322,-0.00671386718751931,0.6486622339780626
-0.01834180138896478,-0.01449584960940107,0.64361572265625
0.05180635990664171,-0.022964477539071673,0.638427734375
0.13814060783293006,-0.028381347656280895,0.634694876480289
0.10783364544061647,-0.039520263671896726,0.6314794432726328
-0.05518536810957357,-0.046081542968765446,0.6264329687641408
-0.11841493996370957,-0.05310058593750965,0.6224878351902889
-0.03728238826261063,-0.058593750000018346,0.6193431839690121
-0.03671397377210916,-0.06668090820316845,0.6150220792408592
-0.017861601668096336,-0.07553100585938127,0.6122533857872092
-0.020157153519501574,-0.08094787597656974,0.6068309970177503
-0.019938037254980508,-0.09155273437501835,0.6051856488278193
-0.0054931640625,-0.09834289550783133,0.6013819687867337
-0.012724552990370105,-0.10665893554690879,0.5974633977011267
0.0026868139227572284,-0.11566162109376159,0.5947168123232107
0.0017445299840920566,-0.12268066406252896,0.5912890867030779
0.0015966709326251762,-0.13298034667970923,0.5876269706347497
0.00993161628805173,-0.140838623046903,0.5851147623183822
-0.002012907499152253,-0.14938354492188805,0.5818066365019068
0.018247094087316063,-0.156555175781278,0.5795996106601252
0.020054876059246204,-0.16670227050782072,0.5772998185828447
0.03514408286101694,-0.1731872558593914,0.5746679368361864
0.03010366916468512,-0.17944335937502318,0.5718505293119126
0.02987435560886084,-0.18524169921876352,0.5694091063285535
0.032852756175447584,-0.19104003906250966,0.567272859126492
0.028018873606036256,-0.19500732421874614,0.5639159087994124
0.03600814015463105,-0.19439697265625,0.5621775366806998
0.018907344440119364,-0.19012451171872008,0.5596434143952715
0.0035151539232641206,-0.1771545410156028,0.557861328125
-0.014092670060308845,-0.1582336425780719,0.5554907574080317
-0.015689354379560202,-0.1317596435545731,0.5528150176031533
-0.040912590523796685,-0.0970458984373967,0.5509839696089697
-0.06019863867101276,-0.05546569824213102,0.548095703125
-0.06054472242442438,-0.010070800781132209,0.5455834479553042
-0.04950655276939595,0.03944396972662767,0.5430494193764697
-0.0407627201260293,0.08819580078137165,0.540771484375
-0.053070795589946824,0.13618469238296335,0.5382592191653043
-0.01956383983371594,0.18234252929698602,0.5352074580061401
-0.03190458879798273,0.22438049316411415,0.53314208984375
-0.01991814467218696,0.2618408203125811,0.530324638812812
-0.01629437470315916,0.2931213378907322,0.5284010220364698
-0.030010611769264183,0.3179931640625251,0.5262864712702057
-0.011820146617813054,0.3362274169922092,0.524526288929062
-0.005443927911959588,0.35095214843751255,0.5230929352983177
-0.007411908093162687,0.3560638427734592,0.5211693486419761
-0.030049004721872555,0.3601074218750039,0.5189622257468774
-0.024386382225330478,0.35636901855467373,0.5161231385201022
-0.003158101472033294,0.3451538085937201,0.513916015625
-0.0031827664006273517,0.33309936523432576,0.510793358692812
-0.011727701662283742,0.3182983398437056,0.5107717894303065
-0.01190185546875,0.30052185058590347,0.5086355690015488
-0.016667534657969052,0.27862548828119593,0.5055129120693762
-0.009073598053219478,0.25642395019528014,0.5043846538999055
-0.0080054861655163,0.2317810058593161,0.5039161306967663
-0.009432527984126427,0.20576477050770678,0.5004667822674715
-0.002749814910664419,0.1809692382811853,0.5000412603760456
-0.004237970197560979,0.1555633544921561,0.49896240234375
0.01072734637485438,0.1313781738280661,0.49689710111468044
0.015045991303448681,0.1097106933592968,0.49628675289885044
0.02399508668731026,0.08728027343745559,0.4942923976427758
0.035223042425803416,0.0697326660156028,0.49140394709217866
-0.005979059808975746,0.05142211914057576,0.4912406599102836
-0.02156106150922817,0.03379821777337522,0.4887283177272791
-0.01051446829584775,0.019226074218717172,0.4889625508821727
-0.02425804595002214,0.006561279296860518,0.4862869248639355
-0.028544611411482717,-0.004882812500028965,0.48691863484898273
-0.024584516567186243,-0.013351440429695707,0.4840797484221727
-0.0018950295552079648,-0.024108886718768343,0.48370361328125
-0.002327817058560604,-0.0321197509765975,0.48088606519699134
-0.0029843626521109164,-0.041198730468765446,0.48102800064967277
0.07135439678342131,-0.04798889160157167,0.47889177352758683
0.12391916475738546,-0.054931640625027034,0.47968662344124524
0.11039526895411661,-0.06469726562502318,0.47584002240842277
-0.0682961430922778,-0.07064819335939672,0.47621618432267376
-0.11877342646135712,-0.08026123046876545,0.47623742226524807
-0.04091110460407959,-0.08728027343753089,0.474314153542171
-0.03094675792234303,-0.09819030761720922,0.47410117840982624
-0.030670166015625,-0.10681152343751642,0.4716597654665016
-0.03198677956882778,-0.11566162109375773,0.4717307582928349
-0.027419054001422898,-0.12695312500002026,0.4708363919183245
-0.0029951037767534986,-0.13549804687504055,0.468892012426002
-0.009211915759928451,-0.14617919921877703,0.4698075464630766
0.001419359546756208,-0.1550292968750145,0.4666847824375792
0.0008128449368800803,-0.16540527343751932,0.46769244015024797
-0.010912487285828455,-0.1737976074218895,0.46630859375
-0.008473898928670788,-0.1829528808593895,0.4643144091739084
0.0002446847928950742,-0.18913269042971212,0.4646195916484866
0.016472892562153604,-0.19531250000001352,0.46400924677933025
-0.002955730250999737,-0.20088195800782072,0.4621071657988215
0.024300965268453274,-0.20721435546876546,0.46234130859375
0.02777099609375,-0.21308898925783423,0.46180199671090744
0.02666735934621424,-0.21606445312500966,0.45928955078125
0.03962683323136232,-0.2191162109375,0.45921850440825845
0.031198979407157438,-0.21926879882812597,0.45992087924637026
0.02897073570280985,-0.21553039550778788,0.4569191975975775
0.02201865952114655,-0.20996093749996428,0.45699025735722126
0.00432480279406843,-0.19409179687497102,0.4547119140625
-0.006513117426180624,-0.17044067382806224,0.45501708984375
-0.032196044921875,-0.13992309570299466,0.4523415742654916
-0.04678386091355076,-0.102844238281138,0.45194443544859897
-0.05464111822094706,-0.058059692382664056,0.44959499892757154
-0.055659041831632165,-0.009613037109246592,0.4496660787672213
-0.027221296159574294,0.04020690917974977,0.44654324780839977
-0.04547119140625,0.09063720703138034,0.4449462890625
-0.0372626897864609,0.14144897460955747,0.4447121998142357
-0.03318266214527478,0.1873779296876622,0.4423627030532004
-0.015687065260050093,0.2298736572266161,0.4400634765625
-0.017923879776102977,0.26794433593758593,0.439453125
-0.03251761099992713,0.3002929687500985,0.4370828186696498
-0.01787354591912662,0.3251647949219044,0.4347836222989363
-0.011784820884613996,0.3424835205078294,0.43444884860338207
-0.004470971779277979,0.35491943359376255,0.43250519199089804
-0.018966816368654132,0.3591918945312558,0.4296875
-0.010752268996726209,0.360107421875,0.4300637924342262
-0.008264958202230267,0.3562164306640502,0.4272253979673184
-0.010452903027659043,0.3451538085937191,0.42740902283862575
0.00407974986795789,0.33203124999997874,0.4248046875
-0.012221940647139553,0.3140258789061998,0.4248758175396421
-0.012130180084796653,0.2955627441405584,0.4249675965086376
-0.0022795681744104566,0.2716064453124382,0.4250180976989341
-0.003163114777700323,0.24742126464840805,0.4249469676592688
-0.02344236136707183,0.22354125976556224,0.42494697435261247
-0.012024473965141991,0.19805908203115152,0.42510986328125
0.00032017553835494316,0.1708984375,0.4248046875
0.011190320805764707,0.14617919921872102,0.42769357646384704
-0.011713689171639825,0.123596191406194,0.4273172505629704
0.012842695320975928,0.10078430175772415,0.43022669140285963
0.02513115932194782,0.07934570312495076,0.43173204520639563
0.014434324501247792,0.060043334960913845,0.4330950920773428
0.015009693363779374,0.04211425781245752,0.4358416908419223
-0.009333207303261213,0.02738952636713681,0.439453125
-0.019220726246432607,0.014953613281212346,0.4425048828125
-0.0220998814321683,0.0007629394530887942,0.4443359375
-0.014556812477645736,-0.010375976562527034,0.44765198822163865
-0.03187044109122571,-0.022430419921891414,0.45196533203125
-0.008946936784292103,-0.028991699218780895,0.45565780236039094
0.0056355513150971905,-0.03997802734376931,0.4597575150911528
0.0028279729489123074,-0.046081542968765446,0.4649454966790746
0.005889693786173335,-0.055847167968765446,0.4693603515625
0.09436533943350175,-0.06317138671876737,0.47393798828125
0.13729349805601865,-0.07095336914066845,0.4788920077942127
0.06747929219641458,-0.08026123046875773,0.484619140625
-0.11621613520700673,-0.08728027343750966,0.49077354900020453
-0.09518410127581285,-0.09735107421877703,0.49696860598092185
-0.04196664808754701,-0.1074981689453429,0.5019938659735073
-0.01554863376669897,-0.11703491210940493,0.5089619793787109
-0.0121204580199974,-0.12542724609376157,0.5144146052756852
-0.025700761878937297,-0.13671875000001352,0.5210775194730001
0.004658990823091787,-0.1435852050781414,0.5284932193387167
-0.006825558819327379,-0.15380859375001546,0.5356547332267032
-0.008585841560458924,-0.1628875732422295,0.5410362324307031
0.003362254792766198,-0.16998291015628186,0.5492047614715366
0.0005901644730393085,-0.18135070800782072,0.5555826033103554
-0.0005438231886180888,-0.18798828125001737,0.5624187911409766
0.021026888432074477,-0.19371032714845632,0.5699056913263165
0.01805648137727534,-0.19989013671876546,0.577392578125
0.010976261353597883,-0.20591735839844474,0.5849305785538343
0.025848557343849787,-0.2116394042968895,0.5924174553125333
0.010996381509718439,-0.2143859863281279,0.5995077688809065
0.02828543220803176,-0.21942138671874903,0.607442345886723
0.03621904704738984,-0.21903991699218703,0.6142475737099685
0.02535519518549344,-0.2183532714843721,0.6220907967733947
0.035521804321568456,-0.21858215332031686,0.6297001447752044
0.014088185527869284,-0.21911621093746814,0.6367704519740313
-0.000564694671293383,-0.2068328857421525,0.6454267508942824
0.001332019930219567,-0.19302368164057962,0.6534526383358615
-0.024577945388434184,-0.17074584960934314,0.66192626953125
-0.04103048018114642,-0.14160156249990538,0.6683862720209485
-0.04195737447607281,-0.10307312011705112,0.677165085690946
-0.05654878311367319,-0.05874633789050818,0.6849570612575512
-0.04026176103578828,-0.010757446289000227,0.6929828918058103
-0.05656603183033769,0.038757324218881305,0.7004497287283538
-0.04954544772191343,0.09056091308613301,0.7078253455751538
-0.04709824671971503,0.14099121093756178,0.7153834427334099
-0.03320278564806355,0.18867492675787187,0.7237658471597267
-0.03201189127728551,0.23223876953134848,0.7311812926788454
-0.00948031502824106,0.2703094482423193,0.7383430040201384
-0.007135965439573987,0.30288696289069933,0.7452708838064183
-0.02057952619819672,0.3274536132812905,0.7528289742713934
-0.021946900308280136,0.345764160156279,0.7604782212255018
-0.018193629424176926,0.3572845458984824,0.7676795838657923
0.011450065595729914,0.36422729492187406,0.7744647885862339
-0.015131982213580109,0.36476135253906466,0.7809250387292281
-0.014135226265482208,0.3601074218749662,0.7871910416829542
-0.017145279599339164,0.3472137451171735,0.79437255859375
-0.0009770122919211808,0.33279418945307576,0.8001314077784565
0.004084192567076921,0.31425476074211944,0.8058781453787884
-0.00797025246563399,0.2917480468749498,0.8115854124001078
-0.014745636394610235,0.2712249755859081,0.81878662109375
-0.01445401628407678,0.2470397949218103,0.8235069998116924
0.005421789716239728,0.22239685058584627,0.8295194693875514
0.002879504912322477,0.19622802734368724,0.8357854221412732
0.018995892203042118,0.17127990722653016,0.8405968636416887
0.004327791366838992,0.14648437499994013,0.8454600445988117
-0.018193652850840153,0.1242065429686689,0.8503625020283606
-0.01398552989426194,0.10162353515620366,0.8557842817045885
-0.026040732946832512,0.08338928222653981,0.8611346602612415
-0.023956298828125,0.06622314453120945,0.865478515625
-0.011759053229576615,0.05134582519529464,0.8708288774483266
-0.010064435422483118,0.03845214843747007,0.8754779119399974
-0.008249518358529778,0.026626586914025085,0.8802697687508452
-0.0207812498393439,0.016632080078106657,0.8841461182979425
-0.020342983843723864,0.006637573242172535,0.8877368299000105
0.06878773486416798,-1.351686706899691e-14,0.8924054022279168
0.11006132523186721,-0.006790161132860292,0.8968207089112656
0.08691664478767828,-0.01693725585938321,0.8997296276712449
-0.11020434835104456,-0.023193359375007723,0.9046124435179167
-0.10573351545838726,-0.02899169921876738,0.9076642046770809
-0.044740565686836625,-0.035476684570331325,0.91217041015625
-0.014498978742098044,-0.040893554687515446,0.915598781682915
0.0027593880487761634,-0.0499725341797085,0.9184168083404117
-0.028433395006254275,-0.058593750000015446,0.9222412109375
-0.020673856999999296,-0.06591796875004634,0.92437744140625
-0.0022106971344071275,-0.07598876953126737,0.9269811207983419
0.014041072836917877,-0.08560180664064672,0.92940316323874
-0.009324246604992358,-0.09246826171878186,0.9324162402853997
-0.0017692584994055483,-0.10368347167969474,0.93658447265625
0.008067841246854888,-0.11260986328128476,0.93916880831874
0.021375862031567903,-0.12062072753907843,0.9416102212620682
0.017910653751904308,-0.1306152343750164,0.9420583465358235
0.0075936571581313676,-0.13816833496095246,0.9446619924612245
0.02319741553426129,-0.14831542968751932,0.9464215757491591
0.02777375541987794,-0.15457153320314526,0.9494733369083231
0.02056089196177325,-0.1608276367187664,0.9499022489724109
0.03071281927405965,-0.16746520996094666,0.9517717735858486
0.0423383371826982,-0.17364501953126157,0.954842737914634
0.02675517920934106,-0.17890930175783423,0.9540509870137432
0.023956298828125,-0.18005371093750097,0.9540509903604014
0.009911216685285856,-0.17913818359374228,0.9572649242616786
0.013988297587046263,-0.17044067382809314,0.9568882402675254
-0.024852683242223405,-0.15579223632810474,0.9567975824316496
-0.03898142366894051,-0.13641357421867373,0.9564924099970655
-0.04640336004680984,-0.10536193847645267,0.9571027649062355
-0.04969834183247714,-0.06896972656240152,0.9564924166904014
-0.05300284822964566,-0.028228759765571897,0.956869117417881
-0.0445556640625,0.01770019531262358,0.9567975991649796
-0.031137460992322112,0.06637573242205748,0.9537458446991515
-0.040767208005163855,0.11474609375018538,0.9538889113249466
-0.030887075153861982,0.16174316406255793,0.9543562029549797
-0.032942237658228186,0.2075195312500975,0.9514665476046062
-0.011785038417907779,0.24536132812513323,0.9515380859375
-0.01091034541955091,0.2790832519531651,0.94940185546875
-0.015714362341471902,0.30868530273441075,0.9473561556625687
-0.015566126789958008,0.33020019531254924,0.9474276973421225
-0.00912897366255082,0.3479766845703545,0.9442854222537297
-0.01824424942111242,0.3569030761718895,0.942149195131642
-0.013296151833651659,0.35919189453125,0.9397267209713264
-0.024428881537212406,0.3591918945312326,0.9392257551877212
-0.010943112626672564,0.3514862060546735,0.9368896484375
-0.004308246837278036,0.3384399414062095,0.9343577818049182
0.002548768969332972,0.3221893310546252,0.931935260791278
-0.009603606204537606,0.30212402343745076,0.9296370081803939
-0.01284374952075044,0.2816772460937191,0.9268904294958001
-0.003392726186860999,0.2572631835936882,0.923947930288918
0.003974846948134619,0.2323913574217794,0.9202669791842278
0.009739233191749519,0.2056884765624334,0.9171248145358002
0.008842492357732113,0.1797485351562191,0.9150789775163214
-0.005941536989522224,0.15502929687493627,0.9122420087291361
-0.014298076707450313,0.1298522949217794,0.9073591995758002
-0.0157898648002677,0.10650634765620076,0.9047745861400357
-0.01726550857624416,0.08682250976559894,0.9018319162531755
-0.017314043600175227,0.06683349609370172,0.8971264569724007
-0.02354370008754465,0.05096435546869786,0.8954947866064583
-0.019207373049013682,0.03448486328121621,0.8902693725591284
-0.0034378994848265707,0.021667480468716208,0.887560169440661
-0.004354959601588774,0.010375976562469105,0.8830167858486787
0.05872466153478411,0.0013732910156163108,0.8776139181821234
0.11695247703190408,-0.009460449218766414,0.8755679640293299
0.10054258880419431,-0.016174316406278963,0.8705762342836431
-0.05756869631753526,-0.02502441406254055,0.8652449785766284
-0.11778063798580853,-0.032730102539069744,0.8636474609375
-0.061693358443302,-0.03845214843752124,0.8580826514487934
-0.037078857421875,-0.0472259521484766,0.85357666015625
-0.026964255475756094,-0.05615234375000869,0.8507769933085758
-0.01581475897547333,-0.0627899169921957,0.8460189210912067
-0.02454810986085805,-0.07293701171876737,0.8408309361566207
-0.013382639723688876,-0.08071899414066845,0.8368821814901223
-0.016874847231385395,-0.09002685546876545,0.8332732138249097
-0.005485080190714936,-0.10025024414064962,0.8284805772408792
-0.006965857752296067,-0.10742187500002993,0.8242081129567093
-0.01093201675544641,-0.11894226074220053,0.821299702889949
-0.006904456470786808,-0.12847900390627123,0.8162018570580121
0.012001207942950535,-0.1384735107422295,0.8135269505729651
0.0080779414849098,-0.14587402343753186,0.8088591914849098
0.01431662727721728,-0.15701293945313177,0.8039948057280238
0.014315651724084458,-0.1651000976562809,0.80169677734375
0.036736895087717054,-0.17364501953127318,0.796365397810102
0.022528778436270866,-0.18035888671875,0.7942475405378214
0.02497107824611399,-0.18653869628906877,0.7892562726320272
0.019207721102296092,-0.19241333007814335,0.7855408140539539
0.023175019645202483,-0.1948547363281221,0.7813217090128631
0.009505468570084172,-0.19500732421873454,0.778755207733614
-0.00529479378066316,-0.18669128417966577,0.77484130859375
-0.021012119594919706,-0.1684570312499498,0.7704254095505237
-0.03574142760601657,-0.1454162597655294,0.7663681091182831
-0.045317920795751324,-0.11352539062490441,0.7623291015625
-0.04656669575533197,-0.07461547851548742,0.7590438970616114
-0.041961044095356635,-0.03021240234363414,0.7544662636895273
-0.05145798703371977,0.017623901367249773,0.7497451587450604
-0.04566021779653143,0.06866455078137841,0.7450058211641054
-0.026891339989762727,0.11901855468765447,0.741846993465521
-0.02173064209657249,0.16632080078136394,0.7372511341502932
-0.019323157653433422,0.21247863769537187,0.7325118032626836
-0.01658712096677934,0.2532958984375888,0.7279341565039413
-0.011219748040058618,0.2877044677735577,0.7227280058661913
-0.0134099936984351,0.3164672851562809,0.7178451967128477
-0.011075846421107673,0.3404235839844049,0.7126572117782696
-0.004775163640724489,0.3549194335937828,0.7081513443123674
0.006687344859214546,0.3664398193359592,0.7025864176903555
-0.007988541995458457,0.36972045898437406,0.6980805569177737
-0.007952642309015236,0.3672790527343678,0.692353999713551
0.01585130958840837,0.35919189453122297,0.6885664004026889
-0.005196811766202258,0.34820556640623457,0.6841323189229881
-0.014226566821215945,0.33370971679682965,0.6787827234861818
-0.01375092860610878,0.3150939941405526,0.6739897221155544
-0.0036351017802318548,0.2954101562499382,0.6688017271409644
-0.020455773182023,0.27084350585934314,0.66436767578125
0.00048467421336500995,0.2452087402343084,0.659251486872846
0.0027106806714940405,0.21911621093740152,0.6556073457477143
0.02991620232081931,0.19317626953117953,0.6511194565716476
0.0031953481915392608,0.16586303710934314,0.64697265625
0.005430370567940644,0.1405334472655603,0.64178466796875
0.011704318506767772,0.11657714843741311,0.63690185546875
-0.0033838943352253255,0.09155273437495172,0.6318575060931803
-0.024297386009127113,0.07179260253903402,0.6269925848697415
-0.012897973876952533,0.051422119140581556,0.6247126954152958
-0.008231215442087787,0.033569335937430486,0.6196504949231803
-0.04259901569251061,0.019531249999966208,0.6154677179417457
-0.031109842630965886,0.005645751953074311,0.6115182604753787
-0.02189190789221516,-0.0071716308593952754,0.6074613014030696
-0.010286016506486566,-0.01724243164063948,0.6024888350670025
-0.004425048828125,-0.02929687500001931,0.59967041015625
0.04650449127408403,-0.03738403320315638,0.5947698201663535
0.11601240189294129,-0.046234130859393346,0.5922024855672414
0.10589556939383428,-0.0557708740234515,0.58746337890625
-0.01906825883577305,-0.06347656250003186,0.5838908664740026
-0.10582364954095921,-0.07469177246095922,0.5799954342372414
-0.068520306129063,-0.08285522460938996,0.5779310633813394
-0.04960876162304505,-0.09170532226563369,0.5725816352778325
-0.023696470371476104,-0.10284423828126352,0.5701402323744966
-0.02720541790262239,-0.10955810546879634,0.5674113240864948
-0.025769696505674126,-0.12176513671878089,0.562744140625
-0.02429676185590218,-0.1314544677734527,0.5600694416332466
0.0091010172879465,-0.14129638671877992,0.55816650390625
-0.013185639901622564,-0.15319824218754635,0.5548814600453326
-0.010635664459161405,-0.16326904296876737,0.5522419813667812
-0.00851776870022321,-0.17311096191408495,0.5483289824800893
0.00875982468693105,-0.18463134765627026,0.5454385975565078
0.005125691766564014,-0.19317626953126352,0.5431409875055111
0.004559233402284891,-0.20385742187502703,0.540699577908841
0.029863385237623306,-0.21270751953127898,0.5382581683121752
0.01578755560066376,-0.21942138671877606,0.5359605850344948
0.011426582040237101,-0.22918701171875966,0.5353133398257758
0.031890869140625,-0.2360534667968895,0.5332859295493997
0.043361185412441335,-0.23811340332031106,0.5310777825744889
0.027689310669477184,-0.24383544921874903,0.52825927734375
0.018904494753964243,-0.24223327636717928,0.5265001525490671
0.038354050963069805,-0.23651123046873843,0.52520751953125
0.015805918757165825,-0.22392272949211944,0.523448401429903
-0.012943846628152936,-0.20446777343742856,0.5210244145765486
-0.040920824995578135,-0.1752471923827075,0.5214015235972875
-0.056215595737834224,-0.13824462890614186,0.5184217057175969
-0.046959872119661836,-0.09391784667963005,0.516573271793446
-0.051891067370344046,-0.04516601562487159,0.5162135152360374
-0.03361398882889809,0.0064849853517374954,0.5138440589588488
-0.026668209399412512,0.060882568359509205,0.51116943359375
-0.04483485632875179,0.11459350585944356,0.5107030087502089
-0.0201416015625,0.1654052734376255,0.5085667849747908
-0.01834653190140769,0.21415710449235983,0.5058202096368808
-0.03028295341014023,0.25634765625014194,0.5058921897296939
-0.023246616544741097,0.2925872802734824,0.5039344603865638
-0.006794474985315502,0.32470703125005984,0.503413334286893
-0.011013698833078298,0.3477478027344532,0.5011706162519813
0.006496370709416532,0.3649902343750309,0.4990343891298877
-0.014434031667952329,0.3737640380859498,0.4987292166953095
-0.02653309110539445,0.37872314453125,0.4968981653544736
-0.0034530916751616516,0.37765502929685474,0.49400759301760455
0.008183271104675607,0.37185668945310857,0.4941515900165518
-0.0034289371132236283,0.36170959472653863,0.4912438425896709
0.0021825148598803904,0.3494262695312017,0.4912610009463564
-0.007862560099698176,0.3300476074218489,0.4889087364925427
-0.02130061559272002,0.30899047851557,0.48912476378427816
-0.010645143890681129,0.2856445312499073,0.48652221221863773
-0.023562008024048224,0.2618408203124276,0.48370361328125
-0.01302306388624422,0.23376464843746717,0.48393676546303405
-0.019234608217103127,0.20812988281243627,0.48126220703125
-0.006065594552283294,0.18203735351552364,0.48133423732405184
0.008059661995085116,0.15502929687493822,0.47943115234375
-0.004020331486044821,0.13038635253903016,0.47889283776738006
0.0081166624108206,0.10559082031244015,0.47698974609375
0.01675066584197776,0.08354187011710784,0.47652348189018195
0.021784044846309965,0.06317138671870462,0.47431521108863006
0.010257337252021678,0.04524230957028981,0.47415413939963247
-0.025223614317511907,0.027465820312455588,0.471424528311784
-0.019673230632666308,0.012207031249982622,0.4712634633161283
-0.023373510406985452,-3.089569615770722e-14,0.4691441703241175
-0.016621429313482837,-0.012512207031293448,0.46966552734375
-0.006696959830770403,-0.025024414062527034,0.4669910124186301
-0.023545264653921618,-0.03318786621094571,0.4669189453125
-0.019162440711000112,-0.04425048828127896,0.4668468715130417
-0.011946327640182561,-0.05462646484377317,0.465087890625
0.03637580990397272,-0.06347656250004924,0.46478271484375
0.1428461892670645,-0.07232666015625773,0.46266332479842404
0.12964808136118716,-0.08270263671876642,0.46142578125
-0.004347081550228863,-0.0904083251953603,0.4616588664984558
-0.12892592103357106,-0.10253906250001449,0.4600608903660988
-0.08317223754830405,-0.11146545410157167,0.4587345095681121
-0.04109646304843672,-0.12176513671878089,0.458984375
-0.01434326171875,-0.13397216796879635,0.4595947265625
-0.020538191526130952,-0.14404296875001737,0.45668718328222946
-0.03217672294558557,-0.15411376953127318,0.45722543092528656
-0.0074020755882879055,-0.16540527343753283,0.45699237245016305
0.0018420535053707775,-0.1771545410156337,0.45664849916969685
-0.004413703630354353,-0.18554687500002703,0.45455097958681945
-0.017519885313873364,-0.19714355468754635,0.45402943850054933
-0.0037509031178880503,-0.20507812500002992,0.45433461093512933
-0.006164560486591331,-0.21560668945313177,0.45417369319277884
0.005540338666766913,-0.22354125976565492,0.45173229028944883
0.015358682023276688,-0.23239135742190106,0.45182105725902044
0.02004169688840536,-0.23834228515626546,0.4522705078125
0.003947812580006667,-0.24452209472657072,0.45189318795180705
0.01747006851684045,-0.25085449218751543,0.45210962688347955
0.035001135041889904,-0.2523803710937442,0.4517323070227789
0.026489376953811386,-0.25726318359375094,0.452037486150693
0.026935899174517924,-0.25772094726562594,0.4518044711822142
0.011865775062360551,-0.25833129882812594,0.4503672923122211
0.008226270743037448,-0.2509307861327647,0.449989949024864
0.03048763885076704,-0.23895263671870462,0.45007861559446455
-0.006403545907284426,-0.21942138671866793,0.44966826748680416
-0.026520464134559704,-0.19027709960928907,0.44905792261763605
-0.05794415208505245,-0.15312194824213776,0.4498291015625
-0.046841296395819736,-0.10833740234362835,0.4497569206697288
-0.03617476396261781,-0.05889892578104146,0.4494517415418088
-0.05427698255103569,-0.0039672851560414515,0.4502786525159643
-0.05358296768463362,0.050964355468819514,0.4500620864109806
-0.029044195021976374,0.10498046875013903,0.44952392578125
-0.037950093314160716,0.15914916992206907,0.44945172815514284
-0.03783844016901011,0.2084350585938089,0.447226921476777
-0.010078980033004325,0.253372192382868,0.44684954806943533
-0.02041067351070028,0.292053222656335,0.44715472719734944
-0.014451578237906885,0.32424926757822636,0.4473876953125
-0.024064620367266445,0.34942626953130795,0.4498291015625
-0.017050235957604933,0.3670501708984643,0.44975688385640056
-0.008833806086054196,0.37933349609376643,0.44975688050973645
-0.007010903876980294,0.38436889648437406,0.44990132596192767
-0.01560007871679882,0.38406372070312594,0.44959615352734766
-0.0005182563335503886,0.38032531738278785,0.44920249858980427
-0.012158317179452706,0.36865234374996814,0.4518768595683007
-0.003204345703125,0.3551483154296658,0.4524312080215665
0.0019438239457692163,0.3378295898437056,0.4521260255469765
-0.01949512776028616,0.31593322753896835,0.45433449380182234
-0.008589138026478491,0.29113769531243916,0.4551615854959453
-0.009632991605526437,0.26687622070309314,0.4575307472665059
-0.00195559417018076,0.24002075195305067,0.4581971989915662
-0.007685508080458968,0.21293640136709047,0.4593618086473418
-0.01310255891759849,0.18432617187493627,0.46194774066951766
-0.0007951745402650907,0.15853881835933928,0.46424462784067
0.0031481819539159496,0.13168334960931224,0.4669189453125
-0.0018110098313484158,0.10757446289053521,0.46905517578125
-0.004208225029864985,0.08575439453119593,0.47056497730393004
0.017676099317129615,0.06469726562493724,0.47361674850308644
0.022647263800142772,0.04562377929682962,0.4762187813355118
0.019551355096131866,0.028152465820290774,0.4791982612019182
0.01288967079858412,0.014953613281215243,0.4813344950173341
-0.0015460141223934988,0.0009155273437017252,0.4839364977297459
-0.02436191809672013,-0.011749267578147206,0.48652248999192005
-0.014375229072591554,-0.02212524414063948,0.49163818359375
-0.01866406859361263,-0.03356933593751641,0.4941518912164982
-0.023707470862716122,-0.04135131835942424,0.4973482618145047
-0.02691183329913214,-0.05310058593751255,0.5013315005276736
-0.02524501792001313,-0.06187438964844764,0.5042790833202395
0.0030517578125,-0.068969726562528,0.5091937493874253
0.01799817241526754,-0.07934570312502896,0.5137713794128317
0.09347719785776828,-0.08804321289065106,0.5161809990289432
0.12103835966533118,-0.09674072265626449,0.5207745324113248
0.061587155343712174,-0.10711669921878089,0.5255126953125
-0.11011744882103756,-0.11894226074220053,0.53070068359375
-0.111471765913783,-0.12832641601564526,0.5359610067144046
-0.04427761133598812,-0.13885498046879635,0.54046630859375
-0.03562867340765855,-0.1504516601562809,0.545188628377993
-0.027313232421875,-0.16143798828125772,0.5511474609375
-0.024766586912104045,-0.1704406738281588,0.5552752254228507
-0.007536636662426747,-0.18218994140629055,0.5624231953534624
0.0020481194457317446,-0.19012451171877898,0.5672336663207318
-0.0014535206401812136,-0.2006530761718837,0.5724374073589312
0.0005206809930545773,-0.2070617675781395,0.579833984375
-0.015321652837024713,-0.2155303955078516,0.58502197265625
0.014258263095108978,-0.22460937500001546,0.5918962790128623
0.00014474330546580079,-0.22933959960937403,0.5975341796875
0.016202666014136804,-0.23132324218751546,0.6046255976556547
0.014560396756956457,-0.23742675781252318,0.61126708984375
0.020467319179798125,-0.23803710937501835,0.6172101930729659
0.029472916326117912,-0.2439117431640637,0.6250156356236619
0.033155577577146746,-0.244140625,0.631103515625
0.039701243003688026,-0.24368286132812403,0.6380345580106757
0.02037438226435297,-0.24322509765625097,0.645751953125
0.023956298828125,-0.2423858642577944,0.6532209687271341
0.02661491039632385,-0.2366638183593605,0.6606899977159318
0.017920096370160888,-0.2302551269531163,0.6678538643101213
-0.0039026476486915657,-0.2145385742186853,0.6756591796875
-0.0012491447662028338,-0.18859863281239572,0.6831282220629623
-0.02926584471261472,-0.15731811523432818,0.6910783142124713
-0.03950476191486231,-0.11894226074213778,0.698066346973856
-0.05926626923054099,-0.07263183593737642,0.7060733592190768
-0.05693075818678668,-0.022659301757605402,0.7141682783407354
-0.03082275390625,0.031280517578259205,0.7221028653865172
-0.04302978515625,0.08430480957041314,0.7295874128656759
-0.03975300421373563,0.1382446289063736,0.7373771227393894
-0.025032124781002613,0.18714904785174932,0.74462890625
-0.01231799330866689,0.23422241210948602,0.7521704507981527
-0.012905222755581832,0.27420043945319594,0.7601204258143606
-0.016820892281776745,0.3106689453125724,0.7671394654364465
-0.020345783329863455,0.3376770019531511,0.7743034090039675
-0.012245417509249281,0.3575134277344223,0.7806242939338003
-0.01115213367309777,0.37231445312504635,0.7873381745079641
-0.003427307286945142,0.3793334960937645,0.7944603483368295
-0.0033855091015792455,0.3826904296874923,0.8015518466249866
-0.012947019267560114,0.37689208984373646,0.8065489879296635
-0.01729395523736334,0.3681182861327705,0.8138313365410323
-0.0070991554599951195,0.35522460937495753,0.8203697012156494
-0.00829696404272906,0.33790588378903785,0.8263435368789542
-0.013244651663616068,0.3178405761718219,0.8321991080583705
-0.021936413530309135,0.2952575683592852,0.8387680177537634
-0.00021746635813748577,0.27099609374993144,0.8435783481610458
-0.0031032111292652585,0.24414062499991793,0.8487511325385496
0.012584702510631748,0.21850585937493627,0.8555678996662365
0.006910294729692818,0.19332885742184314,0.8607407007770762
0.00700387587833977,0.16632080078118627,0.8654060134522901
0.0105859162687452,0.14228820800775094,0.8702011633824981
0.010238528988941554,0.12115478515619015,0.8756218252722958
-0.0007840686290615569,0.10002136230466288,0.8801994653377081
-0.021869913603118397,0.08148193359370752,0.885547601628126
-0.020540455545742235,0.06484985351556417,0.8882639799985583
-0.03530669401634513,0.04959106445307142,0.89310446721333
-0.014722383759088745,0.03616333007810859,0.8974494470568778
-0.010747536810963722,0.02532958984372876,0.90240478515625
-0.015592707684895391,0.016403198242145502,0.9057316255291652
-0.008676275169726355,0.007171630859358586,0.9101067153268664
-0.002806661379639009,0.00068664550780019,0.9149169921875
0.07454794948864112,-0.008239746093770275,0.9182163898989886
0.09628174916467812,-0.015792846679709222,0.9224738410393759
0.06358376959950651,-0.022125244140643343,0.9250603419947805
-0.11005620985294402,-0.028228759765635138,0.9297980530960477
-0.09704173518494125,-0.03875732421876641,0.9320793916568664
-0.03473241951359752,-0.04501342773438176,0.934868657066555
-0.0318545879342777,-0.05371093750003476,0.9394036171001946
-0.031331713201592545,-0.06149291992188948,0.9419175924562329
-0.022793265452057,-0.07354736328127606,0.94512939453125
-0.01353007876863773,-0.08323669433594667,0.9485589005776947
-0.009177582313187433,-0.09246826171878089,0.9520032859012708
-0.000762939453125,-0.10353088378910161,0.9540520713335305
0.001633929365438472,-0.11199951171878282,0.9568860850146145
-0.007955242668505858,-0.12390136718750966,0.95947265625
-0.018137236428319378,-0.13259887695315106,0.9620592408720574
0.008057546902182142,-0.14221191406253475,0.9645880519985554
0.00826864790152185,-0.15136718750001546,0.9651688156867612
0.015055122681704933,-0.1585388183593895,0.9661717445603414
0.012141811422541022,-0.16815185546876737,0.9694708544585553
0.01542612905697087,-0.17410278320313177,0.971607081580649
0.03845843347630923,-0.1803588867187664,0.9722753003453414
0.024050999436565242,-0.1866912841797056,0.973888530581437
0.017852783203125,-0.18997192382812403,0.9766498279031737
0.025634765625,-0.19371032714844572,0.97625732421875
0.006379722665157579,-0.19470214843749903,0.97869873046875
0.026463361645447863,-0.19340515136716868,0.979149158248714
-0.00752744839091021,-0.1853942871093272,0.97900390625
-0.023796388432245293,-0.17051696777341674,0.9814453125
-0.03469545558738041,-0.15014648437492661,0.9817358566574044
-0.04097350319210393,-0.11947631835923307,0.9815179518860211
-0.04728764124321711,-0.08010864257807142,0.98114013671875
-0.05694431051087315,-0.03776550292963392,0.98114013671875
-0.05916048781089779,0.009765625000132273,0.9818231377072651
-0.04264467425706202,0.061645507812691167,0.981212789491437
-0.02794536074017026,0.11276245117200727,0.9819103518238133
-0.029536645213864093,0.16342163085946915,0.9812127961847652
-0.021129771638921553,0.20874023437510814,0.9811546612492827
-0.018157958984375,0.2510833740234892,0.9789893951061236
-0.001983642578125,0.2883911132813311,0.9784662241935075
-0.009714804203127644,0.31951904296886585,0.9791637363258914
-0.0012715122085480155,0.34484863281254535,0.9764171476013132
-0.010906419780382521,0.36170959472657843,0.9764171409079849
-0.010942764573391255,0.37185668945314143,0.97380147375821
-0.013551194557891399,0.3778839111328342,0.9739757212713132
-0.00457763671875,0.37445068359373457,0.9708368497422557
-0.00012310710964373692,0.3681945800781163,0.9713018187860784
-0.005914579594704192,0.3575134277343335,0.9686279296875
-0.005980088908768886,0.34202575683588105,0.966796875
-0.0007409518573608461,0.323181152343695,0.9664773353281793
0.01037549966259963,0.30082702636715614,0.9639632361455073
-0.016995628408162856,0.27633666992181416,0.9615361770527424
-0.0030804052736266518,0.2500152587889568,0.9610271826173766
0.01568676740676004,0.22338867187492567,0.9593129131874215
0.01010001215562466,0.19470214843741793,0.9564208984375
0.018965054349045166,0.16937255859368822,0.9538340460821566
0.009257227944523204,0.1424407958984013,0.9524678834651877
-0.01196817969599838,0.11688232421869883,0.9490966796875
-0.022168732392254035,0.09597778320303521,0.9475850441918441
-0.02142713295498151,0.07522583007806273,0.945376063897071
-0.009700821832485416,0.057678222656226824,0.9442423004620155
-0.020686311617633017,0.042724609374958485,0.941626974672172
-0.0033862119014599354,0.027236938476517605,0.93902587890625
-0.01558616327946485,0.015869140624986483,0.9368754719602188
-0.009589854753817463,0.00656127929686438,0.9345209953601622
0.026603832931812024,-0.004577636718768345,0.9323989179420157
0.11423885296772324,-0.011444091796895275,0.9291874940402519
0.11507137964742101,-0.01739501953126738,0.9265864350876563
0.008879824416992223,-0.027008056640646726,0.9242036891997187
-0.11382351832760944,-0.03417968750001738,0.9227928887512888
-0.07258018684078077,-0.04074096679688176,0.9182152352992184
-0.039678671414744786,-0.04608154296876352,0.9147714389888592
-0.026949332691913807,-0.055541992187546345,0.9124755859375
-0.019182661267109505,-0.06347656250001449,0.9100341796875
-0.019093209904337848,-0.07057189941407843,0.9078839199947817
-0.0007993344461202063,-0.08041381835938949,0.9033343283372883
-0.012810381587187704,-0.0897979736328574,0.9001089655715627
-0.0010596950226011838,-0.09857177734377703,0.8986698791019236
-0.00946044921875,-0.10948181152345246,0.8949209906769691
0.0003934374042839462,-0.11917114257814142,0.8905757330601545
0.012591988202554534,-0.12908935546879635,0.8879887167181796
0.000551477013836395,-0.13671875000003186,0.8852421313402673
0.0022090438813986615,-0.1477050781250058,0.8803593154936014
0.024190294369777078,-0.15563964843753283,0.8779179058969313
0.022435695940817745,-0.16494750976565106,0.8737321570760617
0.0023616418120236777,-0.17059326171876546,0.8704480335483039
0.015643725935062226,-0.17761230468753378,0.8673234388964989
0.0379579696926327,-0.18600463867188755,0.8631966248642808
0.028716019278477427,-0.1895904541015659,0.8608418872242951
0.03140175390143371,-0.19439697265625194,0.855712890625
0.020219466767515775,-0.19462585449218026,0.8532852994123424
0.0010178918173954876,-0.18951416015621234,0.8484753170583038
-0.007768194157868858,-0.17799377441404657,0.8456558781077561
-0.03416591262265762,-0.15716552734368242,0.8412967786802731
-0.049431595817168765,-0.12878417968736677,0.8381996869297812
-0.0420482749452097,-0.09140014648432335,0.8338996963176398
-0.044266316338213006,-0.049209594726507946,0.8297866839360997
-0.03002338264680449,-0.002136230468619659,0.8271129521308269
-0.05429387317448797,0.04936218261738301,0.822854189097323
-0.03975941642584235,0.10070800781262938,0.8187137507877807
-0.035785280644235806,0.15319824218760136,0.81451416015625
-0.03568962958264163,0.1992797851563678,0.8118541229083346
-0.015245134665126924,0.2440643310547353,0.80657958984375
-0.01833782889643337,0.28198242187509653,0.8045891267602666
-0.0010749290463896997,0.3146362304688601,0.7990367099758345
-0.01557998868067511,0.34393310546879635,0.7965087890625
-0.011958703611141602,0.36117553710939143,0.7920905406597333
-0.018406305029885935,0.3741455078125328,0.7895762306371077
-0.006670629935828896,0.37933349609375,0.7844611327418115
-0.015775895816321203,0.37872314453125194,0.7821061842618038
-0.014930707025661434,0.37673950195310857,0.7770639934858576
0.00640192444755987,0.3642272949218451,0.7738664047014128
-0.016260750749599866,0.3519439697265147,0.7705094543743332
-0.00931461490015874,0.33416748046869205,0.7667014939474306
-0.012890303318461574,0.3109741210937191,0.7623291015625
-0.01081075867878303,0.28671264648431416,0.7579837167723684
0.00017558450621371413,0.26176452636709047,0.7542352098673449
-0.0005873398869228471,0.23498535156243047,0.7503543155477884
-0.010803993393435782,0.20706176757803085,0.7477804783766202
-0.0007897931012449321,0.17944335937493822,0.7424197385419525
0.019153133632796117,0.1525115966796513,0.7375369226952961
0.023170287459434336,0.12603759765618627,0.7342663297382472
0.02265964144441729,0.10124206542961388,0.7301263633085796
-0.01937501759014528,0.078430175781194,0.7251706068759616
-0.018071645120978988,0.05699157714841095,0.721143730984528
-0.020599365234375,0.037841796874956556,0.7177004801807102
-0.02838134765625,0.02151489257807576,0.7125124885527903
-0.02287486386297205,0.007019042968728759,0.708240024268632
-0.014495849609375,-0.007019042968765448,0.704126801047136
-0.017693548833782862,-0.01922607421876931,0.7000865351449342
-0.009636244564932577,-0.027618408203168448,0.69580078125
0.016204185400444226,-0.03677368164063948,0.6901483962048143
0.08864367003505547,-0.046386718750023176,0.6864995463205958
0.12860511297531937,-0.0534057617187809,0.6835805105892222
0.06055682062161339,-0.06454467773440106,0.6787241635240905
-0.10336870770022726,-0.07095336914063949,0.6743654857765538
-0.08572759777635407,-0.08056640625002318,0.67138671875
-0.054732426983335566,-0.08758544921878089,0.6665900895934035
-0.03983202569185749,-0.09857177734375773,0.6641486733034112
-0.028411270197150885,-0.10650634765627703,0.6590336791547793
-0.029296875,-0.11558532714846792,0.6562009372067822
-0.016821173401723136,-0.12512207031251932,0.6517824578840538
-0.0036555499095957417,-0.13359069824220246,0.6483393878002207
-0.016154658090057065,-0.14312744140626546,0.6455329004471589
-0.009755298861956536,-0.15335083007817424,0.6422489777193574
0.0027896335429621914,-0.16052246093752992,0.638892037432283
0.005572724353850515,-0.1713562011718837,0.6346195698014511
0.002003220574333253,-0.17791748046876546,0.6321651048606389
0.004528080961636413,-0.1879119873047353,0.6289203280852563
0.02338897869734102,-0.19470214843751546,0.62408447265625
0.018460619746107486,-0.2006530761718919,0.6219482421875
0.02539210891167185,-0.20675659179689335,0.6192146586070583
0.021783544519741602,-0.21331787109375772,0.6143918953355167
0.01751108190890569,-0.2188110351562664,0.6123416909168727
0.029167856004837206,-0.2239227294921863,0.6095821439014554
0.03808685984112733,-0.22384643554687597,0.6064101671520538
0.026769476166542724,-0.22377014160156203,0.60211181640625
0.023999290099845905,-0.2194213867187191,0.6001217147627055
-0.011259242045793268,-0.20584106445305259,0.5976072474467669
-0.00906286529531824,-0.18371582031239864,0.5928834718628113
-0.03781604093330717,-0.1531219482421455,0.5901368864848991
-0.05808015055221764,-0.1165771484373822,0.5881468082680168
-0.062713623046875,-0.06973266601544252,0.5852540672915632
-0.05071942636922519,-0.02044677734362062,0.5810803631217397
-0.04538079628363743,0.03250122070322782,0.5780029296875
-0.03029830456720713,0.08636474609388517,0.574951171875
-0.025598218358699534,0.139389038086133,0.572509765625
-0.032935219699583816,0.18966674804699762,0.5700811436392134
-0.019505708244947788,0.2346801757813311,0.5655034935337762
-0.024250437304816897,0.277404785156335,0.562671036052405
-0.017773303231759168,0.3105163574219146,0.55999755859375
-0.021905910342855203,0.3393554687500637,0.5577023748755965
-0.01776854594597167,0.3608703613281974,0.5551020287628804
-0.012230886285416333,0.3741455078125135,0.5530516335842592
-0.003027887717095228,0.3797149658203207,0.5506960425444034
-0.01355009852478155,0.38345336914062406,0.5482419524301747
-0.01741258785455981,0.3805541992187326,0.5454222490930092
-0.0037844567914463796,0.3695678710937191,0.5428345834978285
-0.015428988783068077,0.3562164306640398,0.5403931739011626
-0.012054443359375,0.3379821777343277,0.53802490234375
-0.009417573407009973,0.31929016113274156,0.5354372133219034
-0.019299218951335562,0.2966308593749363,0.5330563482602567
-0.0056583354173689576,0.2706909179687133,0.530541803971003
-0.008336903155068142,0.24337768554681224,0.5309327079490785
-0.005938371043474718,0.21560668945301203,0.5283324321163374
-0.010797161174749237,0.18798828124993144,0.5252806776505016
0.008758141313953123,0.16113281249991793,0.5265389738749281
0.017925948015712446,0.1353454589843103,0.5237548054375875
0.03411277091289354,0.11070251464840708,0.5211670662157561
0.004534806086998461,0.0869750976561911,0.5211670628690843
0.008264698835612093,0.06462097167961654,0.5185668271963297
-0.02445065159962578,0.045776367187427586,0.5182616547617516
-0.03307498149267103,0.02807617187497876,0.5170534045810262
-0.031170024052752304,0.014038085937456552,0.5168214036523405
-0.02045298875587555,-0.00228881835942424,0.5138428273857503
-0.015368576441361925,-0.014801025390639965,0.5133056640625
-0.019073486328125,-0.02296447753906974,0.5110106476776558
-0.008575878535686312,-0.034484863281265446,0.5114014110957561
-0.013629292356176569,-0.0415802001953545,0.5107786869089915
0.04457280233914501,-0.05081176757814141,0.509106408097572
0.11230426414677541,-0.05729675292969981,0.50933837890625
0.1383001099355313,-0.06347656250002993,0.508801239009658
-0.0009565942825219024,-0.0742340087890707,0.5073732099245675
-0.1272949099608681,-0.08026123046876352,0.5062134027345139
-0.064105603518827,-0.0894927978516074,0.506604085832618
-0.02576936853238016,-0.09765625000002993,0.5064453467698558
-0.02197861498885504,-0.10826110839844474,0.5066772874585415
-0.024316333158802043,-0.11642456054690493,0.50384521484375
-0.014874260483197113,-0.12527465820315106,0.5036865092476442
-0.015460218197075297,-0.1361083984375164,0.5035400390625
-0.01582031109440108,-0.1435852050781395,0.5037597644202009
-0.004821762618398621,-0.15350341796876932,0.5036132841950702
-0.0019470183385068864,-0.1636505126953574,0.5035400390625
-0.0014891325133198799,-0.1702880859375309,0.5014770604196485
0.021472025133041354,-0.18135070800782072,0.50140380859375
0.0052735926514767,-0.1875305175781395,0.50079345703125
0.01076047836847466,-0.1964569091797295,0.50140380859375
0.016766495572250507,-0.2047729492187645,0.5015624539498749
0.025903307126635734,-0.21072387695314673,0.501562447256543
0.031195157514576074,-0.2171325683593895,0.5014770804996503
0.02052608998181827,-0.21827697753906009,0.5013305333411933
0.033050355050732234,-0.22430419921874806,0.5008667356304786
0.03921459091071687,-0.22499084472658712,0.4993408600708926
0.025799388126617112,-0.22872924804687356,0.49903568763631445
0.021740769107970844,-0.22537231445311823,0.4994261766278083
0.003448237336161667,-0.21484374999996622,0.49927958596267935
-0.011334813111249406,-0.19950866699209915,0.49896240234375
-0.028216778701258445,-0.17303466796871042,0.4962158203125
-0.049285888671875,-0.13854980468745365,0.49674090217142247
-0.05794674575122161,-0.09735107421862835,0.49683812616602285
-0.05714715026514825,-0.04898071289043673,0.49399434022018024
-0.03347813259504988,0.0028991699220149957,0.49407958984375
-0.04185261211622936,0.05706787109385138,0.4928827149808105
-0.05054920154866866,0.11077880859389,0.4909426125276627
-0.05025490912535355,0.16571044921881758,0.4917115056996331
-0.03182348067360273,0.21713256835949762,0.48928197676735274
-0.02197265625,0.2616882324220343,0.489501953125
-0.02931464579656495,0.3015136718750888,0.48590132869817504
-0.025671433371274553,0.3354644775390997,0.48685237420840627
-0.010961479129790584,0.3611755371094262,0.4842406260045368
-0.00946635273760495,0.3807067871094474,0.481640724998385
-0.009796400940747806,0.3936767578125135,0.4817992130612009
0.0032469102749301698,0.39817810058593894,0.48012663304986036
-0.031664929024122684,0.39886474609375,0.47866232945175463
-0.009130349142278874,0.3947448730468489,0.4762209298950983
-0.005767530436346551,0.38421630859370753,0.4763177757164431
-0.0018868268767663382,0.3672027587890398,0.47462170210962734
-0.01550816922779391,0.3482055664061979,0.4719719156997162
-0.005670736488334638,0.3271484374999189,0.47210693359375
-0.008429020137312747,0.3012084960936863,0.46944541042612353
-0.003148479807209864,0.2754974365233494,0.46943372721504145
0.0032218353797315268,0.24780273437493047,0.4689817967820386
-0.01976886663426607,0.2196502685546513,0.4668455629666304
-0.00666374751712682,0.19104003906243144,0.46707734970866704
-0.00579833984375,0.16395568847645967,0.4673091297573833
0.0003186594987077588,0.13687133789052217,0.4640139722717548
0.024896931187026905,0.11161804199215708,0.4646359233786825
0.025725533900847107,0.08850097656245076,0.4646243372209112
0.016595378865190163,0.06912231445305259,0.4640989608553803
0.01166430911447632,0.050354003906226824,0.46478271484375
0.010074483787255872,0.032730102539040774,0.4644775390625
-0.02771700098415831,0.01678466796871138,0.4661502429004894
-0.032091677468611204,0.0020599365233897084,0.46645542537507934
-0.03174978039445845,-0.010070800781278965,0.46723562023820847
-0.014122994201146448,-0.02059936523439383,0.46905517578125
-0.020692295456503546,-0.028991699218782828,0.4691286016337838
-0.01091289892579623,-0.04058837890627317,0.4724855385742038
-0.009014131144676994,-0.04684448242189141,0.47296047398943997
0.018906171433716337,-0.0560760498047295,0.47478007973246805
0.09564652350695321,-0.063476562500028,0.47630595529205205
0.12071093190170215,-0.07392883300782263,0.478894243367112
0.05846769782433229,-0.0827026367187751,0.4815673828125
-0.10903206981012548,-0.09147644042971792,0.48471534723311444
-0.10236984837252228,-0.10253906250001449,0.48621847215711206
-0.048282881151626746,-0.10948181152345246,0.4894284971524739
-0.02103740700338851,-0.12176513671878282,0.49163818359375
-0.022876858475948204,-0.13084411621096212,0.4939326645120259
-0.024029764840643425,-0.1409912109375309,0.4974252117063237
-0.012481121523899385,-0.1529693603515765,0.50140380859375
-0.0006809427888576124,-0.16250610351564335,0.5040769179191398
-0.004102965690156988,-0.1729583740234853,0.5094966025824477
-0.006145884416842396,-0.18035888671877898,0.5119889651693188
-0.0005679877906565395,-0.19073486328126932,0.5165156321645413
-0.011079228227025735,-0.19714355468751737,0.5214719240637257
0.008703118777884891,-0.20378112792969572,0.52642822265625
0.0033824753488363225,-0.2099609375000145,0.5303108103888076
0.0028736131067918684,-0.21553039550782818,0.535888671875
0.020155995573117508,-0.22140502929689335,0.5405398080729403
0.026587044381673336,-0.22384643554687403,0.545654296875
0.03743193738056028,-0.22888183593749806,0.550537109375
0.02384603454935112,-0.22956848144533712,0.55572509765625
0.029164357065503455,-0.23345947265625,0.5599240457279033
0.037531065628146565,-0.23391723632812597,0.5650898088000755
0.026861017522259792,-0.2285766601562355,0.573057695172837
0.013012274234971153,-0.2220916748046513,0.5777712768121026
0.0025738371711798054,-0.21011352539058542,0.5834850229787932
-0.014236559965988355,-0.19012451171870656,0.5903570201358616
-0.04129798588965695,-0.16082763671865827,0.5954604381667336
-0.038036668217474985,-0.12367248535140754,0.6022699196024667
-0.04082552366060026,-0.07949829101550046,0.6088882060083746
-0.043914042926012815,-0.03143310546866021,0.6140872148608448
-0.04286620681441833,0.02258300781263903,0.6224850474174892
-0.041961669921875,0.07644653320318776,0.6281143304271153
-0.033311900347063404,0.128326416015765,0.63507080078125
-0.0280706967293967,0.17906188964861852,0.6414794921875
-0.01992639085725027,0.22766113281261008,0.649340502780825
-0.02155312489075339,0.26969909667973335,0.6556537807387842
-0.01781054493125471,0.3053283691407129,0.6632205390687531
-0.021241053304187407,0.33454895019540953,0.6696183370771248
0.0028678250479216598,0.3594970703125309,0.6765638236733253
-0.01461164927374842,0.37185668945314143,0.684035208715019
-0.024272331193932534,0.38177490234376354,0.6918226395091924
-0.019115699499991385,0.3843688964843779,0.6995256305729454
-0.014080294089373033,0.3790283203124855,0.7080078125
-0.004172892603330007,0.3719329833983977,0.7156480234558309
-0.0013992845706425363,0.35827636718746136,0.7234981841579128
-0.005803734669384067,0.34072875976560085,0.7303592410637455
-0.011554491615623138,0.32012939453119016,0.7373782873791654
-0.01302829807188961,0.2960968017577316,0.7451656545866686
-0.007929195566877687,0.2709960937499382,0.753173828125
-0.005719361872284581,0.2438354492187133,0.7600349151508191
0.005240156111232617,0.21789550781242567,0.7670539648129128
0.02579203382806874,0.1893615722655294,0.7747676919812545
0.008460605971251962,0.1628112792967664,0.7822391473029173
0.014148520896235542,0.13603210449215516,0.7894161227879263
