,ECG
0,-0.2915584157055306
1,-0.4080578434226354
2,-0.3612975553486149
3,-0.37546990060220564
4,-0.35345526506002695
5,-0.35377844954490495
6,-0.3406766968106256
7,-0.33533618418846
8,-0.32509235610170345
9,-0.3172127842124213
10,-0.30740261700262306
11,-0.29891221079294006
12,-0.2901542896183549
13,-0.28165339130428846
14,-0.27407723347362667
15,-0.26544218449818513
16,-0.2573041322570339
17,-0.2500810722041517
18,-0.24232576680193746
19,-0.23519232653892327
20,-0.22804147168952071
21,-0.22052669031403294
22,-0.21313921377991332
23,-0.20609907573547717
24,-0.19985313619954034
25,-0.19341021054066168
26,-0.18767219211231703
27,-0.1826106208038076
28,-0.17786411226074433
29,-0.1728734749982441
30,-0.1678102483422585
31,-0.1632884181050045
32,-0.1595325451105354
33,-0.1555962778399518
34,-0.15213583248374649
35,-0.14828168709082162
36,-0.14477050979929496
37,-0.14082137431942637
38,-0.13738136166953593
39,-0.1347946159689485
40,-0.13236987393578895
41,-0.13020822861444944
42,-0.1275817305030488
43,-0.12516234628509706
44,-0.12260779061225388
45,-0.12053453707332866
46,-0.11790866318795215
47,-0.11539497950751308
48,-0.11295836679954926
49,-0.11163679725382279
50,-0.11029729648269111
51,-0.10800239822499555
52,-0.10682574636672602
53,-0.10538583754685033
54,-0.10347207993379788
55,-0.1019871130545631
56,-0.1006265595151331
57,-0.09932427969531456
58,-0.09800513081109559
59,-0.09599762041424714
60,-0.09459527745455056
61,-0.09336269168745064
62,-0.09202468896675778
63,-0.09082655277452287
64,-0.08972516345337422
65,-0.0883686961211601
66,-0.08746862360440522
67,-0.08718335316218356
68,-0.08602456968710159
69,-0.0847988850459565
70,-0.08350882125989215
71,-0.08250127711753741
72,-0.08108350613745627
73,-0.07993331904831125
74,-0.07853899096109884
75,-0.07772652439760945
76,-0.07628426814392726
77,-0.07492838854958127
78,-0.07365647769178217
79,-0.07274783435618104
80,-0.07254531723259591
81,-0.07134904295753569
82,-0.07032019931159833
83,-0.06888160759949778
84,-0.06753681395258168
85,-0.06642998906280125
86,-0.06553911243359813
87,-0.0651745878348899
88,-0.06370251692631919
89,-0.06292506561051824
90,-0.06167827971021839
91,-0.060470773417858045
92,-0.06019518961502086
93,-0.058740437941867264
94,-0.05814385810057228
95,-0.058146326333861124
96,-0.0566609649158779
97,-0.05543452167084177
98,-0.05387302390590355
99,-0.05312265961397628
100,-0.05171255031059635
101,-0.05103517262544838
102,-0.05058861915842523
103,-0.04913178715340694
104,-0.048158949793531046
105,-0.04693194346329118
106,-0.04576002124197576
107,-0.04558474874914679
108,-0.04420833680757693
109,-0.04337838840008552
110,-0.04311043168701288
111,-0.041828292066642
112,-0.04094465722123359
113,-0.04088400290549093
114,-0.04077979545240735
115,-0.04082719317925179
116,-0.0395451232191122
117,-0.03839446491966292
118,-0.03837048319425965
119,-0.03839814422556075
120,-0.03818389989550179
121,-0.03712378269446138
122,-0.03622942556602233
123,-0.03616857422661114
124,-0.03568574514494365
125,-0.03563949793210742
126,-0.034584881952069414
127,-0.0335591452812957
128,-0.03329631786331918
129,-0.03327917132805062
130,-0.03207025682596883
131,-0.03120422871233212
132,-0.031050969401105646
133,-0.03084948600460011
134,-0.029714752623393337
135,-0.028516935957632567
136,-0.02836285597219053
137,-0.02718223177101619
138,-0.026321362556112764
139,-0.026174851885507836
140,-0.02589910746323556
141,-0.025828608494525028
142,-0.024992512256975113
143,-0.023883405165460225
144,-0.023705093575653743
145,-0.023529799466218183
146,-0.0223583656561444
147,-0.021396548286844806
148,-0.021342945840429135
149,-0.021243640253846043
150,-0.02012116057749636
151,-0.01910983495585126
152,-0.01868400780768703
153,-0.01851650587266327
154,-0.01858584077979698
155,-0.017500888064883965
156,-0.01654740904465159
157,-0.01643561074312279
158,-0.016290967959858852
159,-0.01635408646009775
160,-0.016099190508701514
161,-0.016183152511218126
162,-0.014830114987015868
163,-0.013843099697632755
164,-0.01388990047593475
165,-0.013728782172388104
166,-0.0136198380495038
167,-0.012531199744578406
168,-0.011597667168662885
169,-0.011566104543409443
170,-0.011535333461945945
171,-0.011557960157474498
172,-0.010167242653818518
173,-0.00910154948458215
174,-0.00887465927481538
175,-0.00894495997404945
176,-0.008959432810296953
177,-0.008943898077246151
178,-0.00883537445115328
179,-0.007618995277141004
180,-0.006773035605303523
181,-0.0066537813031209425
182,-0.006528086803321489
183,-0.006557866379721835
184,-0.006416573398289974
185,-0.006732221720193043
186,-0.006493618895359989
187,-0.00655875078568052
188,-0.006427146862400004
189,-0.006573979838401942
190,-0.0065764270652802145
191,-0.006430700764376541
192,-0.005265324116171283
193,-0.004270345427146308
194,-0.004248017554075143
195,-0.0038355253673677423
196,-0.004113007990082526
197,-0.0038630090969105613
198,-0.0025837637298011928
199,-0.0016977751632063925
200,-0.0017045800121492114
201,-0.00155701300638166
202,-0.0015165387922279863
203,-0.0002386212835097747
204,0.0006098704044382773
205,0.0009130002550329421
206,0.0008894573554309631
207,0.0010169348340787422
208,0.0022386857803894846
209,0.003177471002987985
210,0.003342433881756058
211,0.0032509845085735975
212,0.004448676327953906
213,0.0055812149315790345
214,0.005682953769582713
215,0.005592307187148298
216,0.00581923928931504
217,0.005698339668670737
218,0.00712544573724666
219,0.008083220486470357
220,0.008233788718295904
221,0.008008113698210969
222,0.008261409100007281
223,0.00815487098495973
224,0.008035040287115467
225,0.00799423559460118
226,0.00803281749541782
227,0.008352527631829056
228,0.008175574478064707
229,0.007960416662372696
230,0.008162356408868246
231,0.008133350334773743
232,0.008201357717512453
233,0.008097979451710953
234,0.008075823418153692
235,0.008138125583997914
236,0.00811530943100685
237,0.008013913955468018
238,0.008453454339852546
239,0.009657055688819104
240,0.010544248707558978
241,0.010609799322622055
242,0.01073097565489989
243,0.010740840894067042
244,0.010867419333853554
245,0.011690786203319757
246,0.013003086872182528
247,0.013083779459809505
248,0.013090136313179837
249,0.01432461942247266
250,0.015277646049407222
251,0.015410608685385851
252,0.01556618176733666
253,0.015921799385256775
254,0.01681405579747988
255,0.017920420582424428
256,0.017905857943905777
257,0.017878970046417482
258,0.019431231376953118
259,0.020328279668928362
260,0.020403183153806934
261,0.0204321206427467
262,0.020208207683778043
263,0.020433313460029634
264,0.021896084690068023
265,0.022729050370049818
266,0.022806061424647653
267,0.022994389302314254
268,0.022787253227122297
269,0.023043513993482874
270,0.023122762094443302
271,0.024426317585640064
272,0.025159553521073595
273,0.025432900551928924
274,0.025545502830036756
275,0.025371590166712896
276,0.026631873224540928
277,0.027566072689811535
278,0.027676957473428337
279,0.02761701477662864
280,0.02769287595477262
281,0.029207866145311397
282,0.029992106360200912
283,0.030070227976135032
284,0.03029386556305507
285,0.031383738303336614
286,0.03258048044842674
287,0.0323909367245026
288,0.03261962759658061
289,0.03277625723551155
290,0.0340297823950103
291,0.03505007958887913
292,0.03500771415341386
293,0.03498468660649273
294,0.034972285054411856
295,0.03505475437860356
296,0.03509426527860744
297,0.03524187406628071
298,0.036266318669295645
299,0.03736585183697874
300,0.03771816454977919
301,0.03728870629468504
302,0.03762872563992528
303,0.03776826795084102
304,0.037627578525193786
305,0.037614069323618285
306,0.03767231542800191
307,0.037432381622062666
308,0.037535002631484495
309,0.038962603732750234
310,0.03967839690770984
311,0.039440236039395796
312,0.039581322603159594
313,0.039796554936982115
314,0.0410805820277458
315,0.04205706327961512
316,0.04224770201551129
317,0.04233266968531149
318,0.04337266525029526
319,0.04441460543883476
320,0.044636494179545426
321,0.04445985023180779
322,0.044554966428590685
323,0.045764264724534806
324,0.04666416364487279
325,0.0467788700767374
326,0.0473356710592213
327,0.048384989800769836
328,0.04932953453596221
329,0.049569834069207154
330,0.04964094323495729
331,0.05087253251995003
332,0.05169349359100072
333,0.052035693627324034
334,0.053411801107781244
335,0.05408031274246154
336,0.05421957541078798
337,0.054248481945831734
338,0.0542300825279017
339,0.055584897530559244
340,0.056854304703076536
341,0.05674115317976437
342,0.057974023484727744
343,0.05899360588366543
344,0.05927947138931639
345,0.060666821906001096
346,0.061665952259594405
347,0.06296609504872076
348,0.06378192449786464
349,0.06421432960355097
350,0.06534087122155666
351,0.06638731260507368
352,0.06794615135811913
353,0.06894253379699884
354,0.07055179196017271
355,0.07144988122336636
356,0.07247760024209696
357,0.07374120438573338
358,0.0750653355717403
359,0.07606023401404131
360,0.07763091651228271
361,0.07863963947636081
362,0.08002567216083775
363,0.08128768457256845
364,0.08259226579723467
365,0.08369150323356009
366,0.08489288305920488
367,0.0860301358131031
368,0.08614216025197678
369,0.08754586136387317
370,0.08861462842640223
371,0.08841935112336377
372,0.09005692880085736
373,0.09095391140941464
374,0.09114891698317219
375,0.09247965525749886
376,0.09341674253083361
377,0.09363404455115633
378,0.09480076649708795
379,0.09579126877687305
380,0.09588774208856615
381,0.0972118275259543
382,0.09807297537002542
383,0.09843327298575377
384,0.09975704412589233
385,0.1004766163473496
386,0.10099491413411724
387,0.10237715894583636
388,0.10304326044211669
389,0.10332956595345662
390,0.10423557846674601
391,0.10541483721790176
392,0.10578567261154913
393,0.10707227836957427
394,0.10778213220414729
395,0.10809050339347195
396,0.10950745089953794
397,0.11031202372586085
398,0.11056691021214221
399,0.11215549299241898
400,0.11274002258725879
401,0.11298528194994496
402,0.11451905353856805
403,0.11533739434108504
404,0.11551764082012407
405,0.11680470693411464
406,0.11785329399474402
407,0.11795261204720026
408,0.11926132543765484
409,0.12036142919542739
410,0.12029304657620402
411,0.12032543142910375
412,0.12170300523896667
413,0.12282253148759255
414,0.12297358460961912
415,0.1228007414718335
416,0.1241020664227735
417,0.12515157102937824
418,0.12515625865277152
419,0.12507383183235435
420,0.12651186390536204
421,0.12738498889170205
422,0.1277179780063448
423,0.1277712668256629
424,0.12776519706442246
425,0.128980335847319
426,0.12994368239769932
427,0.13001355143947227
428,0.1300556067967608
429,0.12995182567768157
430,0.13032394346148168
431,0.1301747702933337
432,0.12998977045652632
433,0.13008497721276058
434,0.13025104449922129
435,0.13131739484687552
436,0.13252338908945138
437,0.13262882827648703
438,0.13255185127620578
439,0.13282334473168023
440,0.1325723076817714
441,0.13382134966065995
442,0.13462865180587327
443,0.1348578434928884
444,0.13494827702707488
445,0.13523120150021525
446,0.1351931481552948
447,0.1351640040032071
448,0.13519239172808828
449,0.1349408490408352
450,0.13492663521967452
451,0.13506141238413488
452,0.13493229819616218
453,0.13521596159778473
454,0.1351118974961478
455,0.1349205560394635
456,0.1351132148155539
457,0.1351386268803745
458,0.13491203002719077
459,0.1348704626150403
460,0.13484922239781663
461,0.13493503587049963
462,0.13461129333925798
463,0.13361847593014345
464,0.13264128876172876
465,0.13264790505580396
466,0.13245304499276575
467,0.13242076894535618
468,0.1324478502525002
469,0.1311074607618346
470,0.1302774175022623
471,0.1300729840838234
472,0.12867631656223494
473,0.12782610739662686
474,0.1274787036746691
475,0.12623206566318612
476,0.12549340244242393
477,0.12396354311739065
478,0.12278752507197992
479,0.12169460542818068
480,0.12043100608366492
481,0.11915529088372742
482,0.11814102833841104
483,0.11655765014220257
484,0.11420774695538523
485,0.11158752596971162
486,0.10956314252784248
487,0.10835541330128913
488,0.10675207899141252
489,0.10460030809943327
490,0.10195384058881568
491,0.0995284688381697
492,0.09723049124959325
493,0.0948113841410516
494,0.09229503953383154
495,0.0897245760235877
496,0.08726959950801012
497,0.08489372482734502
498,0.08109184528738367
499,0.07769074847022746
500,0.0749378533171314
501,0.0726696937961425
502,0.0701548064037922
503,0.0677010416399004
504,0.06514615668062788
505,0.061291393638624875
506,0.058242261059924125
507,0.05562303462164603
508,0.05301850749504155
509,0.05074970508994728
510,0.046949252625680074
511,0.04376292160013864
512,0.04092240537551916
513,0.03836916005920767
514,0.03512791255910368
515,0.031706322338491896
516,0.02888172665745475
517,0.026218065000280982
518,0.0228048275368114
519,0.01937905193706533
520,0.016850619507692628
521,0.01301803738994631
522,0.009679790164499706
523,0.00684151664819871
524,0.003266567771692189
525,-0.00027599392098716493
526,-0.004082101044388539
527,-0.007427285605399809
528,-0.009974560708033722
529,-0.013959364894919696
530,-0.01738905117200433
531,-0.020140501262128734
532,-0.02373286027912883
533,-0.026991182087030094
534,-0.031105647815314857
535,-0.03454834299195001
536,-0.037065618918386084
537,-0.040806632059550596
538,-0.0441826823387164
539,-0.046915485008391836
540,-0.0495241067969611
541,-0.053118285633628984
542,-0.056456786967580316
543,-0.059285820776319595
544,-0.06291213998646766
545,-0.06617116977593843
546,-0.0686938835170494
547,-0.07148554073010183
548,-0.07546294311783347
549,-0.07853415397996925
550,-0.08091670565556364
551,-0.08382071267512954
552,-0.08718556827005353
553,-0.09056147438005752
554,-0.09345537321587176
555,-0.09581507078438552
556,-0.09836141673080243
557,-0.10070916191445715
558,-0.10464729363845607
559,-0.10801870980836983
560,-0.11045358635076229
561,-0.1115953745143396
562,-0.11308313000417675
563,-0.11558354731063945
564,-0.1176917564748632
565,-0.11999313545358
566,-0.12277875823327289
567,-0.1248930758035061
568,-0.1262427060967751
569,-0.12766859136959022
570,-0.12999465691751935
571,-0.13242339134522563
572,-0.1334624338628938
573,-0.13524976188469406
574,-0.13739312116804936
575,-0.1397678656108103
576,-0.14095221621996915
577,-0.14232955784282555
578,-0.14338975630664885
579,-0.14500571075024385
580,-0.14709477891034597
581,-0.1482040946677633
582,-0.1497070178748504
583,-0.15089076143564958
584,-0.15208519169698684
585,-0.1532046389433613
586,-0.1546377445282866
587,-0.15547794417977018
588,-0.1568699152620945
589,-0.15797863475274862
590,-0.15958652009573934
591,-0.16049184227088414
592,-0.1619094646823322
593,-0.16292531970928617
594,-0.16317863132192942
595,-0.16459846086945307
596,-0.16527459904916594
597,-0.16554849447727246
598,-0.1668820041541862
599,-0.16754356518472807
600,-0.16789540255669588
601,-0.16917427734621526
602,-0.17008153174157484
603,-0.1703820818417597
604,-0.17030491056445884
605,-0.17163511407160323
606,-0.17274341301174517
607,-0.172895028823952
608,-0.17263817250184782
609,-0.17276547378968307
610,-0.17282370457938884
611,-0.17286003618708215
612,-0.17283701101609283
613,-0.17406191542349878
614,-0.17491998070785317
615,-0.17513399907924013
616,-0.17525915427639804
617,-0.17528734453188216
618,-0.17529107709454642
619,-0.17527623928484545
620,-0.17520234068758045
621,-0.17502354420516683
622,-0.1740260797239773
623,-0.17286474144810274
624,-0.17296105438803588
625,-0.1727195031979303
626,-0.1727241707678176
627,-0.17164259567849302
628,-0.17059887250291064
629,-0.17025751771586534
630,-0.1691218493734551
631,-0.16805599272644536
632,-0.16800678361622962
633,-0.16780650118430043
634,-0.1666667148322384
635,-0.16581569682641517
636,-0.16552484983002794
637,-0.16547041806482402
638,-0.16533467110640698
639,-0.16428576992261187
640,-0.16323253760491788
641,-0.16315179442682998
642,-0.1631096546991013
643,-0.16288665191635876
644,-0.16304492864929704
645,-0.16328363942527502
646,-0.1631261095746681
647,-0.16162361933170852
648,-0.16056502273873952
649,-0.160672758116664
650,-0.1607160799601784
651,-0.1605621488275665
652,-0.15923802104135593
653,-0.1580634520072862
654,-0.15791128957910874
655,-0.15813605429189798
656,-0.15819312427861504
657,-0.15701769074345684
658,-0.15600682163079257
659,-0.15563386069248622
660,-0.1556278188597296
661,-0.15444351248019755
662,-0.15335552416195017
663,-0.1534318947151722
664,-0.15348749608297615
665,-0.15329633215731206
666,-0.15180558091790008
667,-0.15117842886902
668,-0.15084310638949014
669,-0.15059554526673086
670,-0.14959354203051142
671,-0.1488507409930847
672,-0.14866730169267117
673,-0.14823978528611823
674,-0.1472778396569022
675,-0.14608620043000903
676,-0.14593774969311732
677,-0.1458480041884907
678,-0.14443346810936758
679,-0.14350926628234575
680,-0.14364510256217375
681,-0.14342341364546804
682,-0.14223976629617063
683,-0.1411741649585813
684,-0.14095818993040465
685,-0.1397716282173099
686,-0.1387939603755082
687,-0.1386865977939067
688,-0.1368893463545578
689,-0.1362874795286536
690,-0.1349849231653402
691,-0.13400349543300802
692,-0.13353116003040377
693,-0.13243594008275333
694,-0.13135246685098254
695,-0.12997463423862987
696,-0.129054534859199
697,-0.12760645574661805
698,-0.12657036664259216
699,-0.1250915197832277
700,-0.12385658032581094
701,-0.12401202046321293
702,-0.12260355544070518
703,-0.12184381630764166
704,-0.12137514215227954
705,-0.12014248027017925
706,-0.11936946336650486
707,-0.11888745562950298
708,-0.11881438984333216
709,-0.11769006941766952
710,-0.1166322126803084
711,-0.11662667187048599
712,-0.11512020779462308
713,-0.11432570807887589
714,-0.11390523364080757
715,-0.11300713827653967
716,-0.11172654964992172
717,-0.11162330190617459
718,-0.1104203252672633
719,-0.10938618788160796
720,-0.10910579442594348
721,-0.1091577433073358
722,-0.10790940718584674
723,-0.10685962672671191
724,-0.1067171162977963
725,-0.10549824106118799
726,-0.10457444346951195
727,-0.10416521577921224
728,-0.10311050940390737
729,-0.10214273232355155
730,-0.1020029016446395
731,-0.10061369336910772
732,-0.09977749835920513
733,-0.09933254184570363
734,-0.0981139564507617
735,-0.09721409516513374
736,-0.0970138489678288
737,-0.09688189158517564
738,-0.09580709311609913
739,-0.0946428655670242
740,-0.09471795492537576
741,-0.09456301872041943
742,-0.09436768305902402
743,-0.09339502661435771
744,-0.09237546831929423
745,-0.09214287843580307
746,-0.092033037097125
747,-0.09210517605157449
748,-0.09210366796900689
749,-0.09059216492285473
750,-0.08993231100206633
751,-0.08985352843221614
752,-0.08979444135170901
753,-0.08825423213611015
754,-0.08730241831978189
755,-0.08708623021568455
756,-0.08582131233571795
757,-0.08512279924970695
758,-0.08473358615922919
759,-0.08348360984590099
760,-0.08241560851068945
761,-0.0823661360926056
762,-0.0821083276750255
763,-0.08111437048504463
764,-0.08003261119717558
765,-0.07985274440432293
766,-0.08001844013960027
767,-0.07981282443819979
768,-0.07852688901522953
769,-0.07773716392250361
770,-0.07771360596926487
771,-0.0773331952024989
772,-0.07620689853152487
773,-0.07518720124868764
774,-0.07495369560946578
775,-0.07496698830059706
776,-0.07473957077429727
777,-0.07374993505332289
778,-0.07265339233998444
779,-0.07256509495245632
780,-0.07252343710567438
781,-0.07263654092017977
782,-0.07256481604192731
783,-0.07217395531851428
784,-0.07104608028162568
785,-0.07045459925725232
786,-0.06999801941374044
787,-0.07006011570112282
788,-0.0701763032591
789,-0.0698184858056684
790,-0.06865845157113873
791,-0.0676815092286993
792,-0.06779553501735223
793,-0.06762771071302046
794,-0.06749380682109946
795,-0.06627452311476627
796,-0.06526042964389786
797,-0.06513868273231375
798,-0.06522001156139035
799,-0.06493888141957295
800,-0.06356476941916896
801,-0.06285695463017806
802,-0.06253674656740572
803,-0.06268354817567684
804,-0.06120230189804532
805,-0.060602199707380885
806,-0.06067475517676533
807,-0.060176682493255446
808,-0.0586299140780853
809,-0.05823149090363564
810,-0.05753710527712536
811,-0.056480290556345444
812,-0.05539370298554892
813,-0.055379382220109054
814,-0.05545278759698453
815,-0.05540349557630303
816,-0.05547921752175294
817,-0.055426144257922055
818,-0.05408784199737093
819,-0.05331747924081958
820,-0.05306210824408361
821,-0.0530647801994599
822,-0.053011204845591964
823,-0.05284744171733112
824,-0.05310820192770694
825,-0.05291886362350904
826,-0.05293466907944615
827,-0.053034515492700905
828,-0.05307053617282036
829,-0.05281859289223274
830,-0.0529298094355518
831,-0.05297795238208328
832,-0.0515323197172549
833,-0.05065675055575718
834,-0.050680202672065654
835,-0.05047082992395011
836,-0.05053060800402977
837,-0.050634492004584135
838,-0.05058043950611472
839,-0.05067474818673349
840,-0.050516329842880466
841,-0.050345029120320996
842,-0.049097878436907216
843,-0.048240429544503034
844,-0.04812710701525268
845,-0.048320823239806035
846,-0.048180011440584175
847,-0.048127739165294676
848,-0.04799309476545688
849,-0.046765185263097704
850,-0.045774047259030795
851,-0.04562518499312909
852,-0.0455008603519062
853,-0.045490381561089935
854,-0.04544312636013003
855,-0.044500678800490696
856,-0.04352838846840503
857,-0.04331352306534869
858,-0.043237506597283856
859,-0.043255386165337084
860,-0.04178368200230288
861,-0.041012638529130264
862,-0.0406179643840687
863,-0.04052668172190082
864,-0.039870621974252674
865,-0.038410869112854455
866,-0.03827547258038467
867,-0.038349659841858334
868,-0.03821170416608449
869,-0.036897550693994016
870,-0.03606764643165022
871,-0.035915338298334945
872,-0.03582254509560723
873,-0.03595638476258853
874,-0.03574688132729528
875,-0.0356703401302956
876,-0.03603683402588071
877,-0.03586577006268647
878,-0.03564835909919129
879,-0.03584688934621092
880,-0.03427930707436923
881,-0.0335148263463685
882,-0.033410706189809625
883,-0.03351369759974696
884,-0.03340515412618712
885,-0.033334202461322085
886,-0.033627777000820286
887,-0.033249091943373554
888,-0.03334912599185028
889,-0.033306459741942795
890,-0.03330794284908754
891,-0.03207233980756515
892,-0.03109179273621534
893,-0.030998936675364196
894,-0.030721632486435498
895,-0.030750953240224643
896,-0.030724660806456243
897,-0.030883091475057814
898,-0.030922535685396133
899,-0.030970233161687302
900,-0.030888957411086156
901,-0.03087333230382012
902,-0.03108652578552335
903,-0.03110963704043558
904,-0.030834670769783624
905,-0.030745990791295648
906,-0.03097084236196166
907,-0.029613093228407446
908,-0.028737148269191857
909,-0.028335997049378704
910,-0.028543642397657297
911,-0.028493065608956553
912,-0.028457451047445487
913,-0.028611723133768897
914,-0.028421957687136772
915,-0.028408235956789915
916,-0.028416217922474733
917,-0.028238331362875478
918,-0.027112216354038605
919,-0.02614996113421549
920,-0.02602733510213874
921,-0.026269682871594237
922,-0.025988228307066912
923,-0.0260310026711608
924,-0.024703865761591698
925,-0.02405104762172521
926,-0.023808632756188157
927,-0.023772795310893324
928,-0.0235556583598436
929,-0.022098288037237616
930,-0.021537506843817254
931,-0.021425298295835872
932,-0.02109495673700657
933,-0.021011016020533863
934,-0.021176069671791607
935,-0.019951398142131514
936,-0.018878032687725328
937,-0.01860992056815743
938,-0.018678826408021616
939,-0.018890054465718606
940,-0.018894195332151153
941,-0.018597403616035384
942,-0.018698773117160297
943,-0.01865529281473255
944,-0.018846918996856893
945,-0.01882157595989749
946,-0.018837157869707338
947,-0.018832155069614512
948,-0.018881508383072253
949,-0.018652447711062656
950,-0.018960132914869903
951,-0.018747598880360133
952,-0.01887881200780154
953,-0.018853044636704917
954,-0.018451055490497525
955,-0.019049999785348187
956,-0.018847350307668046
957,-0.018746561959407004
958,-0.018936399366491316
959,-0.01869913474230329
960,-0.0188268736711311
961,-0.01866334151234948
962,-0.018777658266788434
963,-0.01880043893817162
964,-0.018838712565820127
965,-0.018765283222096352
966,-0.017154625333719704
967,-0.016599631352918094
968,-0.016256223153936964
969,-0.016425473268226208
970,-0.01624509383490133
971,-0.01637364366740909
972,-0.01608608134261064
973,-0.016226724203487964
974,-0.01619167743235163
975,-0.016531433638573463
976,-0.016130824664382044
977,-0.016211083672207145
978,-0.016476533211752527
979,-0.01612605631420707
980,-0.014956512397315285
981,-0.013976522863567915
982,-0.013827157377128411
983,-0.013618728975432665
984,-0.013771702595790044
985,-0.01245119293204383
986,-0.011632535090021013
987,-0.011481805653006627
988,-0.011380491289791088
989,-0.011112965710668724
990,-0.01134207021310053
991,-0.01134414667818805
992,-0.010128425885481941
993,-0.009067527103769058
994,-0.009053490981711546
995,-0.008846820034724255
996,-0.008982498357139547
997,-0.009177324761856582
998,-0.010023580825377892
999,-0.010945178250485006
1000,-0.011387217541067293
1001,-0.011446483519543516
1002,-0.011310392513769835
1003,-0.011434220406456443
1004,-0.011261938939123356
1005,-0.011410028304355158
1006,-0.0113557887639735
1007,-0.011624256347685293
1008,-0.01128336937800557
1009,-0.011357707013749661
1010,-0.01153604816058058
1011,-0.011298601324610453
1012,-0.011393750887076093
1013,-0.011259189639843625
1014,-0.011229343532285642
1015,-0.011214436817283742
1016,-0.011406907601725453
1017,-0.011407748691268376
1018,-0.011280981510238344
1019,-0.011319798074023679
1020,-0.01132587276753582
1021,-0.011500439570325958
1022,-0.011518384578566333
1023,-0.011674764688211249
1024,-0.011541977218847501
1025,-0.011404549080128154
1026,-0.011447722796605483
1027,-0.011458599569869308
1028,-0.011498702305156231
1029,-0.011257899442779199
1030,-0.01158042892236161
1031,-0.01134970668361228
1032,-0.011428502201269595
1033,-0.011444283150204774
1034,-0.011176387981006775
1035,-0.011403554226550278
1036,-0.011224630367230514
1037,-0.01144224812835285
1038,-0.011422490210217226
1039,-0.011106263407865247
1040,-0.01133264296146903
1041,-0.011304380279095472
1042,-0.011310967578575873
1043,-0.01136925281086656
1044,-0.011427687313389407
1045,-0.011437387387197793
1046,-0.010158576063890775
1047,-0.009087558587298834
1048,-0.008848225382277964
1049,-0.009133465721540158
1050,-0.008813692707965786
1051,-0.0089734521645379
1052,-0.008977358466092654
1053,-0.008956330658069164
1054,-0.009047117515299095
1055,-0.009033885960004899
1056,-0.008873552519309935
1057,-0.009062726390694224
1058,-0.00926017519099033
1059,-0.00921522735817835
1060,-0.00901310664780849
1061,-0.008973606472330914
1062,-0.009023048503575127
1063,-0.008958619791708686
1064,-0.009158252765193385
1065,-0.009180072669174394
1066,-0.010300905666548626
1067,-0.011248932649219173
1068,-0.01148386346455594
1069,-0.011379144070225474
1070,-0.011358505512260522
1071,-0.01149986372117454
1072,-0.011488854815499725
1073,-0.011453797014059687
1074,-0.011302125133815509
1075,-0.0115232009295627
1076,-0.011221908898020277
1077,-0.011401698195064591
1078,-0.011486765233644891
1079,-0.01145630473633339
1080,-0.011332836583542515
1081,-0.011446489528747394
1082,-0.011357548781824614
1083,-0.011258503297119018
1084,-0.011228750838576948
1085,-0.011419281750456025
1086,-0.01140069752470016
1087,-0.011594869127099987
1088,-0.0115176128196713
1089,-0.011202524405925902
1090,-0.011440429367922954
1091,-0.01155807895271316
1092,-0.011449359415979186
1093,-0.011376461940578987
1094,-0.011320964421630806
1095,-0.011341967986636267
1096,-0.011591127700334037
1097,-0.011489719358453885
1098,-0.011525906606404391
1099,-0.011348243381905508
1100,-0.011655012234183953
1101,-0.011533706057023729
1102,-0.011238845561253742
1103,-0.011449266438250373
1104,-0.011559175982934215
1105,-0.011594662933803766
1106,-0.01147256574628051
1107,-0.011490755429623583
1108,-0.011338713803252087
1109,-0.011649016751244499
1110,-0.011280799208137546
1111,-0.009790939219672619
1112,-0.009212351817001172
1113,-0.009053952659303864
1114,-0.009073700118492106
1115,-0.009132640513638518
1116,-0.009031171220589539
1117,-0.009085996123877624
1118,-0.00884747291680208
1119,-0.008897825913579275
1120,-0.008944864709259544
1121,-0.009079929696738232
1122,-0.009017152719918525
1123,-0.007794405309126191
1124,-0.00674569070053755
1125,-0.006552341554406923
1126,-0.006674967567451708
1127,-0.006259239677017211
1128,-0.006529733370907501
1129,-0.006538747896433201
1130,-0.006495514128834784
1131,-0.006540439330867686
1132,-0.006311354556350545
1133,-0.0063073143094986555
1134,-0.006292609899031509
1135,-0.006705231529786443
1136,-0.006603489154305424
1137,-0.006545077021284409
1138,-0.00650501352406948
1139,-0.006563953947916321
1140,-0.006401112677821662
1141,-0.006441745465823842
1142,-0.006755535564091667
1143,-0.006660955702507652
1144,-0.006463879001747966
1145,-0.006444991338646971
1146,-0.006412627389119813
1147,-0.006537434618854797
1148,-0.006508361904313523
1149,-0.0065753041347598185
1150,-0.0051648911271967865
1151,-0.004311887899768917
1152,-0.004230413126760327
1153,-0.004016571730065556
1154,-0.0039233763746782824
1155,-0.004056575126594075
1156,-0.003922325434630217
1157,-0.00394604520068201
1158,-0.003874070822006223
1159,-0.0039737886166207465
1160,-0.003998211586373921
1161,-0.0038292005709907964
1162,-0.00396619098732044
1163,-0.0038667009062545456
1164,-0.004100305013866779
1165,-0.0040820860562636434
1166,-0.0039114734417481515
1167,-0.00412409503959202
1168,-0.003883738669485717
1169,-0.003882099047452993
1170,-0.0038834110992400986
1171,-0.0040879438279459975
1172,-0.003941168019141782
1173,-0.003949906022078665
1174,-0.003922283866751477
1175,-0.004078282052727204
1176,-0.003945809941737474
1177,-0.004023457008521033
1178,-0.0040751037634490775
1179,-0.003948802631910253
1180,-0.0039789220327357605
1181,-0.003980143112941995
1182,-0.004168754087720614
1183,-0.0038601542356759
1184,-0.0040903288928086454
1185,-0.0038462895395419373
1186,-0.004033089635610025
1187,-0.004193095753465378
1188,-0.0039343300289419745
1189,-0.004013445030410314
1190,-0.004144583060767411
1191,-0.0037362823214394233
1192,-0.0026269974749448216
1193,-0.0017868405316033827
1194,-0.001650985956435504
1195,-0.00157621419792926
1196,-0.0016304872701203093
1197,-0.0014838195095827169
1198,-0.0016362410498524803
1199,-0.0016785689725802376
1200,-0.001533168130818148
1201,-0.0015380536124593273
1202,-0.00019702484097792894
1203,0.0006409046285306685
1204,0.0008595757123882955
1205,0.0008278086885679731
1206,0.000869035079361031
1207,0.0007808055307646201
1208,0.00091344395614489
1209,0.000665707520716648
1210,0.0010224658815353915
1211,0.0009469728281708827
1212,0.000786542798733757
1213,0.0008867551067278584
1214,0.0007913659480864079
1215,0.0008137736135506937
1216,0.0007808638573024398
1217,0.0008573126646637346
1218,0.0009709817347842701
1219,0.0006615209782678752
1220,0.0007700009161880199
1221,0.0009754128801066431
1222,0.0006867609960010993
1223,0.0008914993365233427
1224,0.0008853528996019671
1225,0.0008025430172943157
1226,0.0005797780141335045
1227,0.0007021627910464699
1228,0.0007156643624619004
1229,0.0006397042583650727
1230,0.0008276920778689487
1231,0.0007457797323583515
1232,0.0009691129268863389
1233,0.0008057012890881096
1234,0.0008314118945681108
1235,0.0007811604688345424
1236,0.0007655337262496809
1237,0.000954091261511785
1238,0.0007613169862832221
1239,0.0009045773557763672
1240,0.000767286603622776
1241,-0.000391237336985645
1242,-0.0012938972218454557
1243,-0.001347443834292802
1244,-0.0014257532446789014
1245,-0.001671801025480231
1246,-0.0014913758035718888
1247,-0.0015610593987501974
1248,-0.001531535756646244
1249,-0.0015293848092661313
1250,-0.0015899608443001824
1251,-0.0014902648431657029
1252,-0.0018063496118879978
1253,-0.0029497380365269155
1254,-0.003903169061893764
1255,-0.003919226481401343
1256,-0.004177742482989565
1257,-0.004265723879790008
1258,-0.0041210819296428405
1259,-0.004020172898130304
1260,-0.004194799485007222
1261,-0.00404455844186022
1262,-0.004062936914890076
1263,-0.004022147087908231
1264,-0.004254310963759044
1265,-0.004087110186773282
1266,-0.0025383018814422223
1267,-0.0018283333115358491
1268,-0.001387830007855632
1269,-0.001719814079302003
1270,-0.001538782425498691
1271,-0.0015403026049711434
1272,-0.0017842438565118263
1273,-0.0018161080307229351
1274,-0.0015530101118071398
1275,-0.0015090084683708265
1276,-0.0014013844445584127
1277,-0.0015288195706572923
1278,-0.0015429446246595666
1279,-0.0016342794522767978
1280,-0.0016002346155046593
1281,-0.001633591706207944
1282,-0.0014138706706585224
1283,-0.00154272262968356
1284,-0.0015966491655160157
1285,-0.0015955064621375789
1286,-0.0016470048772166117
1287,-0.0015527616991123962
1288,-0.0014733416398677464
1289,-0.0015484713276181982
1290,-0.0015238573664849797
1291,-0.0016988778472429417
1292,-0.001519181011657234
1293,-0.0015389606747951783
1294,-0.0016512854175619813
1295,-0.0016971657270570836
1296,-0.0015485696236767373
1297,-0.001570783848737096
1298,-0.0017734097118466247
1299,-0.0014367281761017902
1300,-0.001483702814606608
1301,-0.001860384277834148
1302,-0.0013729973332316406
1303,-0.0015286345448389134
1304,-0.0003518684117838378
1305,0.0006699866652636564
1306,0.0010499262348890681
1307,0.0009338048448200979
1308,0.0008505585510223803
1309,0.0008562638499465344
1310,0.002050809528721574
1311,0.003368371000358085
1312,0.003240505145998247
1313,0.0031747416262458677
1314,0.0033052604817060045
1315,0.003292347967423741
1316,0.0032700926704740782
1317,0.0031645490630918035
1318,0.0032381833480734927
1319,0.003197149957503469
1320,0.003288783337161719
1321,0.0032305700072828613
1322,0.003189772485576814
1323,0.003385114983894321
1324,0.003474154132711269
1325,0.0031720240904410273
1326,0.003201616255912365
1327,0.00336138739403469
1328,0.0034440200416172204
1329,0.0032359437757350914
1330,0.003071889583358439
1331,0.003195453899415333
1332,0.0032232070875260793
1333,0.0031262879963273337
1334,0.003288028567604065
1335,0.0035267842919280974
1336,0.0032386466202207415
1337,0.003515422542393033
1338,0.0032169924698484988
1339,0.003273596292146241
1340,0.003537377089249348
1341,0.0032404647626225933
1342,0.0033908821771933503
1343,0.003221160449206269
1344,0.0033703335555338686
1345,0.0032538392471516634
1346,0.0031947446830754883
1347,0.0032177185457678238
1348,0.003238887613813515
1349,0.0033154685589060324
1350,0.003127549983348845
1351,0.003141679497023105
1352,0.0031547046242021396
1353,0.0033262374319361246
1354,0.00303240118610485
1355,0.0032809904329004335
1356,0.0034550181880324176
1357,0.0032653705457086437
1358,0.0032371389724134667
1359,0.003269349181671193
1360,0.0031406415255695957
1361,0.0032990666100220106
1362,0.0032828041893347825
1363,0.0032362302899315563
1364,0.0033148509771535302
1365,0.0032576553907094014
1366,0.0031103861984711316
1367,0.0033280274964263266
1368,0.00346312179365457
1369,0.0032814104226580373
1370,0.003266938642436323
1371,0.003069042409997654
1372,0.003147844294793134
1373,0.0034430162482488283
1374,0.0031965439900097942
1375,0.0033119636945925014
1376,0.0033809394140409074
1377,0.0033084874760464355
1378,0.003034064798966778
1379,0.0033532167017557724
1380,0.0032471928634592194
1381,0.0034067396732748046
1382,0.0031131063689673246
1383,0.003152504665193942
1384,0.00350029814972659
1385,0.0032782031106349807
1386,0.003370693241528847
1387,0.003225003238955232
1388,0.003423988216407479
1389,0.003183647418356396
1390,0.003244432321979004
1391,0.0032896006174400996
1392,0.0033659948998396067
1393,0.003406120969081704
1394,0.00461065524757346
1395,0.0055688168680440835
1396,0.00572517821447239
1397,0.005567146839972921
1398,0.00561184920062251
1399,0.0056364683239063604
1400,0.005681943958362457
1401,0.005930949465685325
1402,0.0058859398614264
1403,0.005712336641272676
1404,0.006027550010320755
1405,0.00709497604673879
1406,0.008147502281532258
1407,0.008237281010757214
1408,0.008216167626464934
1409,0.008137593443881045
1410,0.008192012680941196
1411,0.008123607338217957
1412,0.008422093739407104
1413,0.008424588820530203
1414,0.008262720082295791
1415,0.008156695814958087
1416,0.008309625917676153
1417,0.008264100823754273
1418,0.008072343855321412
1419,0.008093105922473172
1420,0.007895095446077877
1421,0.00820842280997242
1422,0.00789901559453149
1423,0.008164435747969606
1424,0.007950525874067043
1425,0.008230025953063685
1426,0.008177835699191604
1427,0.009556151763430661
1428,0.010506148357133094
1429,0.010545252570912097
1430,0.010503752736088647
1431,0.0107177659655934
1432,0.010638462604122285
1433,0.010736140863853877
1434,0.010694421804863914
1435,0.010566099497674062
1436,0.009353353462483163
1437,0.008238193291627015
1438,0.008285615587052536
1439,0.00823066576862252
1440,0.008211812164444925
1441,0.00814685301104916
1442,0.008319270811783136
1443,0.00828483486701441
1444,0.008330172736075302
1445,0.008275208792062285
1446,0.008156385277654813
1447,0.008217577041079872
1448,0.008132377189564284
1449,0.007976491951603437
1450,0.007952432975638338
1451,0.008018068459577395
1452,0.008216513374851487
1453,0.007967841941646117
1454,0.008268922989535401
1455,0.008168232242375038
1456,0.008044259074316717
1457,0.008146489749906954
1458,0.008072683538370944
1459,0.008261124168452849
1460,0.009431190290974795
1461,0.010408344719191427
1462,0.010598661967568732
1463,0.010636019916454494
1464,0.010632122536315488
1465,0.010772682729850684
1466,0.010673750083147682
1467,0.010686137573415437
1468,0.010657955950542527
1469,0.010481847657196777
1470,0.010789837524184904
1471,0.01210874912111921
1472,0.01284240755633809
1473,0.01284627168525483
1474,0.01288294789668802
1475,0.01320054786949637
1476,0.013003513542359397
1477,0.012887789516164821
1478,0.012979678996494118
1479,0.01293503092454566
1480,0.012975227991161247
1481,0.01315169391284225
1482,0.013121407340554054
1483,0.013071353110758663
1484,0.013162865744897655
1485,0.011697311035755288
1486,0.010828266944680417
1487,0.010789602747266423
1488,0.010505054833310521
1489,0.010672008177806327
1490,0.010596094684219418
1491,0.010610093003610523
1492,0.0109444866241865
1493,0.010632831127595525
1494,0.010701649631883277
1495,0.01056493218904368
1496,0.010714594966096398
1497,0.010657293276672761
1498,0.010539415322040512
1499,0.010844004160159479
1500,0.01053533580209947
1501,0.010763015054565762
1502,0.010587690019251157
1503,0.010586662454647532
1504,0.010739921125607524
1505,0.01051829826272629
1506,0.010698962533215648
1507,0.010499713129736408
1508,0.010600757570691175
1509,0.010643814170832345
1510,0.01062881332188182
1511,0.010594098391798293
1512,0.010685732523724479
1513,0.010793876339841784
1514,0.010724124069626334
1515,0.010410426109485671
1516,0.010695257093224499
1517,0.010536571800475085
1518,0.010811042638639775
1519,0.010623975176112983
1520,0.01044568022683174
1521,0.010697297318751455
1522,0.010721917840421086
1523,0.010564316458326431
1524,0.01063021873157535
1525,0.010543094078583453
1526,0.01062019272122002
1527,0.010506415008950012
1528,0.010517563722557266
1529,0.010816574922446582
1530,0.010536540369854902
1531,0.010725481630554793
1532,0.010396822528109171
1533,0.010748471132480801
1534,0.010545761278327
1535,0.010568849039218935
1536,0.010689265964489655
1537,0.010568449692629815
1538,0.010691622512472545
1539,0.010626752397029444
1540,0.011874495341082592
1541,0.012694341901685167
1542,0.012965465109600218
1543,0.013167981326699047
1544,0.013402604136207308
1545,0.013199089985554979
1546,0.01301215887639746
1547,0.012924244901459691
1548,0.01424848505744266
1549,0.015312935999565137
1550,0.01566657785098026
1551,0.015459184741060323
1552,0.015533400805118286
1553,0.015434138919580514
1554,0.015636580876999845
1555,0.01704699847071942
1556,0.01777357400406315
1557,0.017701929399775346
1558,0.01782005998523032
1559,0.01806011232756186
1560,0.018101867643047435
1561,0.019163922741439385
1562,0.020087099926858636
1563,0.020358225235376788
1564,0.0204898577799784
1565,0.021718790382155587
1566,0.02275365921429901
1567,0.02281661310181028
1568,0.023006197198381626
1569,0.024433327387231557
1570,0.025050574436247287
1571,0.025382129901885667
1572,0.025571653015486688
1573,0.026783496326723576
1574,0.0275586741430072
1575,0.02780467670906982
1576,0.02772112089212071
1577,0.029126823045577836
1578,0.030106734695793478
1579,0.03047350084805819
1580,0.03139773701408846
1581,0.03237658511091056
1582,0.03274666299458056
1583,0.03405643322318846
1584,0.034941923373488115
1585,0.03646312563346701
1586,0.03728101151453961
1587,0.038841376208899825
1588,0.03972842074452828
1589,0.041104481129092776
1590,0.043157832215161764
1591,0.04420001869201256
1592,0.04587897544758886
1593,0.04807558188019804
1594,0.0493334281749431
1595,0.05081228416963238
1596,0.0518238273240164
1597,0.05317692425896943
1598,0.05412703943233291
1599,0.05447358070270575
1600,0.055654445103268974
1601,0.05667869564750484
1602,0.0569372698979155
1603,0.05802281948499745
1604,0.0589080647657664
1605,0.059197962522817074
1606,0.059319975946826115
1607,0.059342990037653566
1608,0.05931993541571423
1609,0.05902307603211667
1610,0.05910953148445188
1611,0.059112778106419815
1612,0.059115424971814705
1613,0.05922144102200804
1614,0.05920000418539662
1615,0.057815974468274134
1616,0.056959208553092354
1617,0.056658947456430846
1618,0.056732286728326524
1619,0.05548077301368977
1620,0.05444354791399134
1621,0.054252777217328
1622,0.054276004375961556
1623,0.054339370450035424
1624,0.054425998865814354
1625,0.0542592630420561
1626,0.0542282460868608
1627,0.05433658922323943
1628,0.054044127591015075
1629,0.054231677086268734
1630,0.05449274317275324
1631,0.055732951328527396
1632,0.05653560176617833
1633,0.05673319521909352
1634,0.05804777778919652
1635,0.059003883906000434
1636,0.060650107164223
1637,0.06163846649403978
1638,0.06314765658009165
1639,0.06538347303156204
1640,0.06645403635098394
1641,0.06793960291911437
1642,0.06873963310752279
1643,0.07030061380636107
1644,0.07132804093558062
1645,0.07145809642864852
1646,0.07289790940432389
1647,0.07380130354449714
1648,0.07388610333100412
1649,0.07376951714550636
1650,0.07257865825149606
1651,0.07186016664155769
1652,0.07139838956212798
1653,0.07018019812368526
1654,0.06909146885472014
1655,0.0678376633949745
1656,0.06683592476805321
1657,0.06531636172989162
1658,0.06286684087471148
1659,0.06057821073794106
1660,0.059184156435726235
1661,0.057640286886415024
1662,0.055441230718263575
1663,0.05311450497413107
1664,0.05183347469576564
1665,0.05054439322130612
1666,0.04835992669959161
1667,0.04584419905926237
1668,0.043430334396002815
1669,0.04086839703024176
1670,0.038833225195712584
1671,0.03477536449618715
1672,0.031355536583513074
1673,0.028896511426497233
1674,0.02647309660294285
1675,0.02401605286189353
1676,0.02163753739126817
1677,0.020458730166416007
1678,0.018967729669488634
1679,0.0169066766179863
1680,0.014558344850333057
1681,0.011724835731635764
1682,0.010752162203361022
1683,0.009271329004764704
1684,0.007034175267666658
1685,0.005952208763695917
1686,0.004401615319835471
1687,0.0033247700982688344
1688,0.001912696170640512
1689,0.0006946934835591856
1690,-0.0004923474496003422
1691,-0.0013945344539578837
1692,-0.0028927292171173273
1693,-0.003962391005159759
1694,-0.005386071678619935
1695,-0.0064548128693101715
1696,-0.00795888848931764
1697,-0.00871463592522699
1698,-0.00900323327388615
1699,-0.010382550553459425
1700,-0.011317421140142078
1701,-0.011363759878347023
1702,-0.012728930660792129
1703,-0.01357197893305888
1704,-0.013666526669573107
1705,-0.013780377471405205
1706,-0.015080430337367003
1707,-0.01604697345729447
1708,-0.016162459857783803
1709,-0.016176085777672673
1710,-0.016294060917042295
1711,-0.01644425161698724
1712,-0.016222450453281575
1713,-0.015080739604923494
1714,-0.014172822295845069
1715,-0.013826682488290066
1716,-0.013656937856903528
1717,-0.01229289722800572
1718,-0.011591082553697047
1719,-0.011414287440591055
1720,-0.011325429086212972
1721,-0.011232671757039998
1722,-0.011373573365367116
1723,-0.009984893911183396
1724,-0.00903315379768401
1725,-0.009017298478125092
1726,-0.009016510656647684
1727,-0.009082315521127756
1728,-0.008938029782410161
1729,-0.008893353213287153
1730,-0.008952900799478865
1731,-0.008871685665953125
1732,-0.008878896768482348
1733,-0.008869682892020236
1734,-0.00903573185315821
1735,-0.008787380493194948
1736,-0.008894695776133131
1737,-0.00883767898266719
1738,-0.008927802738271184
1739,-0.00906842455575493
1740,-0.008951028277002422
1741,-0.008910980117607492
1742,-0.008820279880760245
1743,-0.008993308854918912
1744,-0.009053715295162006
1745,-0.009259886956622823
1746,-0.009041422299577884
1747,-0.010215627775005738
1748,-0.01123621203632343
1749,-0.011498649903000206
1750,-0.011128753444174121
1751,-0.011315460879570494
1752,-0.011549472792783509
1753,-0.011416147530700655
1754,-0.011418881707590704
1755,-0.012627563853655854
1756,-0.013675677748192961
1757,-0.01379158110893475
1758,-0.013630715305850468
1759,-0.013660180541543018
1760,-0.014017350393658362
1761,-0.015088263632136913
1762,-0.015989482564905524
1763,-0.016222425066397633
1764,-0.016388826934157875
1765,-0.01775926789972064
1766,-0.018485963733538047
1767,-0.018701984479492124
1768,-0.018823946649759206
1769,-0.018672048591536042
1770,-0.02022324909757973
1771,-0.021051507979759684
1772,-0.021078461134176572
1773,-0.021193420619530987
1774,-0.021405913329529288
1775,-0.02111920702603321
1776,-0.02131989354948182
1777,-0.021228136141235632
1778,-0.021240675019965644
1779,-0.022304633008271683
1780,-0.023479110193024302
1781,-0.02374066799169574
1782,-0.023629970611614325
1783,-0.023739700799819647
1784,-0.023756480330767958
1785,-0.023781229165210943
1786,-0.0238535662517424
1787,-0.023842203929314996
1788,-0.023603339880472682
1789,-0.023676202099886294
1790,-0.023749389567182682
1791,-0.023479353216375263
1792,-0.023751728155211288
1793,-0.023592903426048993
1794,-0.023619706574548167
1795,-0.023520362725885775
1796,-0.0235533963529255
1797,-0.023699889856617036
1798,-0.023651714438930785
1799,-0.02350634637732953
1800,-0.023865133773267145
1801,-0.023701409723264465
1802,-0.023697876689050126
1803,-0.023627071297823526
1804,-0.023425445570487997
1805,-0.02220770370767154
1806,-0.021321294443955703
1807,-0.021185636382129256
1808,-0.021129492032737087
1809,-0.021027625121299156
1810,-0.02111032728963224
1811,-0.021178893336253155
1812,-0.021114879483584932
1813,-0.021094745182037432
1814,-0.02112955242348792
1815,-0.02104673465477457
1816,-0.02102528309568806
1817,-0.02135383128785906
1818,-0.021437750298922423
1819,-0.021184426745829595
1820,-0.02126064228062045
1821,-0.021335710181367578
1822,-0.021210216323002053
1823,-0.021296977913127523
1824,-0.02122445072689583
1825,-0.021011416055153085
1826,-0.02116001511611709
1827,-0.021181109686940397
1828,-0.01979931404788151
1829,-0.01900657140112479
1830,-0.018831783641898532
1831,-0.018625831449005533
1832,-0.018925126845334993
1833,-0.01885879425569895
1834,-0.018812859651655328
1835,-0.018827400112560226
1836,-0.018853363404555634
1837,-0.01873090309200561
1838,-0.017491775850375247
1839,-0.01644488187019346
1840,-0.016242439134765894
1841,-0.016184110592940247
1842,-0.01624357528986825
1843,-0.016149797112274437
1844,-0.016255630407333535
1845,-0.01620852484592207
1846,-0.01630833733357841
1847,-0.016247149911370468
1848,-0.016255542300618465
1849,-0.016250219415073923
1850,-0.016182545461406198
1851,-0.015098956741164418
1852,-0.014090224875841308
1853,-0.013940970031540196
1854,-0.013843033557109417
1855,-0.013662812896674944
1856,-0.013839117449581644
1857,-0.013610143106823347
1858,-0.013975262009503105
1859,-0.013757186115612963
1860,-0.012487522250439732
1861,-0.011600036049938024
1862,-0.011332048562591878
1863,-0.011368395618345102
1864,-0.011318933167097377
1865,-0.011495820707952749
1866,-0.011334135323436556
1867,-0.011260934300716542
1868,-0.01026593870676962
1869,-0.009175017549536878
1870,-0.009070644382873475
1871,-0.008997350747837677
1872,-0.008914643260464846
1873,-0.007924306538235037
1874,-0.0067576157373637515
1875,-0.00641197220256689
1876,-0.0062097535945782305
1877,-0.006451647992102174
1878,-0.006725666769610229
1879,-0.006397876047839929
1880,-0.006539864784759181
1881,-0.0061988184208643625
1882,-0.004990944496639498
1883,-0.004304593243889347
1884,-0.004148018479099769
1885,-0.00406297184027852
1886,-0.004040199469554517
1887,-0.004160295237218772
1888,-0.0039842263606831635
1889,-0.003993681827632942
1890,-0.004150413800236106
1891,-0.003956332160623964
1892,-0.003827004774480331
1893,-0.003920705053166074
1894,-0.004010773324731642
1895,-0.003955537058371713
1896,-0.0038171758270787296
1897,-0.003943366701052696
1898,-0.003994332124546688
1899,-0.004116198191446344
1900,-0.0041947164775231836
1901,-0.005367534960407338
1902,-0.006263129302266523
1903,-0.006362978772082708
1904,-0.007803927519320317
1905,-0.009098011374175614
1906,-0.010268409638719913
1907,-0.011221470032093112
1908,-0.012747183801944995
1909,-0.015187222036047807
1910,-0.01734114010809287
1911,-0.019868693229158824
1912,-0.022574544271308505
1913,-0.025987845164980768
1914,-0.029626290929360134
1915,-0.03349810781779124
1916,-0.036922846236994405
1917,-0.040951485137029245
1918,-0.04575225747785807
1919,-0.05053187787700256
1920,-0.054265894258015146
1921,-0.05800664896621838
1922,-0.061396509633904695
1923,-0.06519380221427823
1924,-0.06864062595509446
1925,-0.07127426252597174
1926,-0.07384105522187152
1927,-0.07598961605055819
1928,-0.07719390454138954
1929,-0.0775483346560841
1930,-0.07889123877594632
1931,-0.07977924817288747
1932,-0.0799665697939686
1933,-0.07987260314801976
1934,-0.07985082066569611
1935,-0.07971859471968053
1936,-0.0786516545480179
1937,-0.07750674526670429
1938,-0.07755389886967262
1939,-0.07739159772497271
1940,-0.07724277754810159
1941,-0.07623455399079516
1942,-0.07502882330044729
1943,-0.0737207591186003
1944,-0.07137460153638207
1945,-0.0686917897686591
1946,-0.0650235399039628
1947,-0.0615776903517695
1948,-0.057732422221323486
1949,-0.052773537366573725
1950,-0.046799777606604004
1951,-0.04085442425900284
1952,-0.03430394277466512
1953,-0.027297504803394147
1954,-0.019925599813010432
1955,-0.012449414021199126
1956,-0.003905694079952675
1957,0.004325457007807307
1958,0.013241344243583203
1959,0.022794619374332137
1960,0.03269594269443165
1961,0.04242360803762462
1962,0.053390921458818776
1963,0.0652956119082933
1964,0.07863437832501573
1965,0.09375374082036347
1966,0.1094446869209912
1967,0.12661429546558442
1968,0.1437334071849678
1969,0.16050258676721932
1970,0.17944416847234942
1971,0.19987476163547188
1972,0.22171600350421575
1973,0.24517280574656328
1974,0.2697159749271922
1975,0.2954251371586951
1976,0.3235138814955217
1977,0.3540416479695509
1978,0.38570361002918396
1979,0.4189042481619709
1980,0.4541461269989243
1981,0.4909774341689838
1982,0.5275569404643137
1983,0.5655038604665875
1984,0.6043978471472542
1985,0.6437648742802278
1986,0.6826560230847912
1987,0.7213897333157898
1988,0.7607070424373514
1989,0.7985104210533542
1990,0.834821657201507
1991,0.8702959636771619
1992,0.9035897365383784
1993,0.9354124392881169
1994,0.9631366128195337
1995,0.9868113729328158
1996,1.0076209584512712
1997,1.024294983121799
1998,1.035198875138926
1999,1.0428965086594713
2000,1.0463150650379116
2001,1.0455797815490169
2002,1.041643768102799
2003,1.0341522388196176
2004,1.0233332558237762
2005,1.009839521491075
2006,0.9939168738413027
2007,0.9744476079632975
2008,0.9527891634432056
2009,0.9294632236411602
2010,0.9035876720308101
2011,0.8756008209058596
2012,0.8464293702978033
2013,0.8170032475069448
2014,0.7860125638590484
2015,0.753249141331672
2016,0.7206009434906754
2017,0.6887526309373688
2018,0.6555320926192771
2019,0.6214925763430016
2020,0.5874009790498608
2021,0.5546156953693893
2022,0.5213288778420375
2023,0.48717186659080153
2024,0.4542466544043217
2025,0.42218683072525665
2026,0.39074696184771707
2027,0.3588131503873766
2028,0.32725902646977995
2029,0.29678777640745985
2030,0.2671435818791895
2031,0.2365010481038373
2032,0.20745917228974078
2033,0.17911694390487162
2034,0.14981966486131906
2035,0.12182892433655237
2036,0.09472298202792084
2037,0.06766101061396773
2038,0.041015730523871884
2039,0.014444816943925631
2040,-0.012569784540255211
2041,-0.03798264703638298
2042,-0.0628043469064848
2043,-0.08739652390580746
2044,-0.1119102868120181
2045,-0.13598581594188217
2046,-0.15906866667452152
2047,-0.18114798384899247
2048,-0.2020197698765613
2049,-0.2218095137457875
2050,-0.24142078227116925
2051,-0.2594976960335497
2052,-0.2766790446760461
2053,-0.29372411358249706
2054,-0.3094594409265545
2055,-0.3244646842799083
2056,-0.3378079745059044
2057,-0.3500330769193996
2058,-0.36222503736269196
2059,-0.37314686791197266
2060,-0.38447222850378077
2061,-0.39379492858456344
2062,-0.4026018012786525
2063,-0.41108983655339626
2064,-0.41861001980367274
2065,-0.4243380220822648
2066,-0.4294578161401277
2067,-0.4329617961751748
2068,-0.43588989876894213
2069,-0.43807603086906444
2070,-0.43929928058808865
2071,-0.44047126983624924
2072,-0.4404585894691055
2073,-0.4393923956371135
2074,-0.437843842415644
2075,-0.43564639668113325
2076,-0.43330835420086417
2077,-0.4295106122697603
2078,-0.4258589328983825
2079,-0.4220343871839956
2080,-0.4174088071564979
2081,-0.4124458424899227
2082,-0.407318175174397
2083,-0.40105700728162136
2084,-0.39541255489700544
2085,-0.38892504271637385
2086,-0.38204120706698236
2087,-0.37573348776404586
2088,-0.36938933253623396
2089,-0.3623087619976169
2090,-0.3547703216931912
2091,-0.3461088526314271
2092,-0.33796117288327493
2093,-0.3307228408966839
2094,-0.3221148531417695
2095,-0.31342307461313124
2096,-0.304866765921956
2097,-0.2963491348323884
2098,-0.28762433654552044
2099,-0.2795248169245458
2100,-0.27192113691528724
2101,-0.2630781304429658
2102,-0.25484956755669463
2103,-0.2459695844653865
2104,-0.23786831188448695
2105,-0.23047131745130323
2106,-0.22297117446236436
2107,-0.2155912765330973
2108,-0.20846238196416492
2109,-0.20226510451672983
2110,-0.1959153463573166
2111,-0.18991844251520593
2112,-0.183636181046695
2113,-0.1781666901585488
2114,-0.17275491885495223
2115,-0.16797012970145264
2116,-0.16331904155619748
2117,-0.1579761376729533
2118,-0.1533126869696835
2119,-0.1497780445665426
2120,-0.14597544183221897
2121,-0.14247722968637666
2122,-0.13847854175808788
2123,-0.13504131226465918
2124,-0.1322596609802144
2125,-0.12879461223964858
2126,-0.1250896995433345
2127,-0.12260720369112024
2128,-0.12052229312534754
2129,-0.11794935197536197
2130,-0.1153867081331101
2131,-0.112964157526461
2132,-0.11037276764877263
2133,-0.10813963633863473
2134,-0.10687003555557137
2135,-0.10523508248676545
2136,-0.10284799640559036
2137,-0.1006803533591849
2138,-0.09948197259728551
2139,-0.09783699134189061
2140,-0.0958691285602638
2141,-0.09476508693992718
2142,-0.09314150483700137
2143,-0.09100188510337806
2144,-0.08985961279225665
2145,-0.08854841803045177
2146,-0.08737966759989463
2147,-0.08604610213360317
2148,-0.08459922815603141
2149,-0.08349627989240421
2150,-0.08223582438715461
2151,-0.08098986391608311
2152,-0.07966688056682662
2153,-0.07847608961411164
2154,-0.07768658954654208
2155,-0.07615889579149711
2156,-0.07521834463727214
2157,-0.07392058785320493
2158,-0.07273437345597136
2159,-0.07227581903761542
2160,-0.07132573350512773
2161,-0.07036227607209147
2162,-0.06894852029630318
2163,-0.0677417405647624
2164,-0.06769701392898307
2165,-0.06656148050080891
2166,-0.06541414723990727
2167,-0.06399806181530537
2168,-0.06282367365712573
2169,-0.06247220048338239
2170,-0.061187818262626245
2171,-0.0604667454801444
2172,-0.06026267666808629
2173,-0.058671739921096325
2174,-0.05793635146901105
2175,-0.0576799479959778
2176,-0.05763237945063644
2177,-0.056351133360401956
2178,-0.05560300602409805
2179,-0.055249824203245305
2180,-0.05390612764789506
2181,-0.053120931662835005
2182,-0.05285251875279417
2183,-0.052796024713151334
2184,-0.05181438100084527
2185,-0.05079983300587252
2186,-0.05052419634481202
2187,-0.0502834841403608
2188,-0.0491202093232224
2189,-0.048167564345066104
2190,-0.04813690447021464
2191,-0.04798125548917938
2192,-0.0464336607643293
2193,-0.04585339150988222
2194,-0.045873157066530564
2195,-0.04557290284892968
2196,-0.044542103993846525
2197,-0.043571298359863266
2198,-0.04315452076879155
2199,-0.042971367723448534
2200,-0.04183440947684987
2201,-0.04099986606253991
2202,-0.04078751933644826
2203,-0.04082638411145453
2204,-0.03943836775561827
2205,-0.03847961229305425
2206,-0.038222064314096235
2207,-0.038193906578242384
2208,-0.03805127175799615
2209,-0.03692134645031442
2210,-0.03603823042015523
2211,-0.03575267889666276
2212,-0.03584188042380801
2213,-0.03456124735455282
2214,-0.03371624430478401
2215,-0.03355437299786168
2216,-0.03330495684306916
2217,-0.03319600534868794
2218,-0.03197307120752676
2219,-0.031213448876649372
2220,-0.030900686399269864
2221,-0.030834635389480686
2222,-0.0308655306915208
2223,-0.03089740236281469
2224,-0.029706433382054108
2225,-0.028843839881690432
2226,-0.02870131953954815
2227,-0.028536618597281956
2228,-0.028547985800385586
2229,-0.028624155021828298
2230,-0.028473780238833866
2231,-0.028168310757714376
2232,-0.027171484633391745
2233,-0.026224213771904897
2234,-0.0260199034814439
2235,-0.025758722669571785
2236,-0.026135181719901982
2237,-0.025958850176769434
2238,-0.025034981900068108
2239,-0.023858147704723446
2240,-0.02360753048628842
2241,-0.02365703775667373
2242,-0.02354711670674342
2243,-0.023608428992241984
2244,-0.022351964042567483
2245,-0.021237006027120694
2246,-0.021112394726675927
2247,-0.021236267586206958
2248,-0.021130473968292946
2249,-0.021157579866845456
2250,-0.019698479805061182
2251,-0.01909786751432694
2252,-0.018746159229376485
2253,-0.018748849188460544
2254,-0.01887355667240702
2255,-0.01861554994684659
2256,-0.018818725635024194
2257,-0.01875381781044196
2258,-0.01739151178372551
2259,-0.016315694419929243
2260,-0.016474416786503986
2261,-0.016291274938959502
2262,-0.01626020727416088
2263,-0.01615989201421622
2264,-0.016223825310087765
2265,-0.01466924881137724
2266,-0.013877672952858683
2267,-0.013796861513437212
2268,-0.013855811893776888
2269,-0.013832411027773805
2270,-0.013589208824133451
2271,-0.012642009413528587
2272,-0.011595389981714542
2273,-0.011391364415443115
2274,-0.011380781855536495
2275,-0.011627980371350917
2276,-0.01137371382978372
2277,-0.01127456807927434
2278,-0.011331643999852167
2279,-0.010025170422225161
2280,-0.009086974915909637
2281,-0.00904494390207607
2282,-0.009068216140854096
2283,-0.008934812707561789
2284,-0.00895074630055865
2285,-0.007894843733653331
2286,-0.006586888594984433
2287,-0.006673308578747215
2288,-0.0065615282610720525
2289,-0.006355620455339872
2290,-0.005222309475834921
2291,-0.004258722230605267
2292,-0.0038865121735952956
2293,-0.003933549089010889
2294,-0.0026845832467883397
2295,-0.001809770946776842
2296,-0.0017809518149099815
2297,-0.0017297679411900587
2298,-0.0015099765283379364
2299,-0.00028571854022583517
2300,0.0006690980600219239
2301,0.0008002225917421386
2302,0.0008330444469826857
2303,0.0006782436121043187
2304,0.0008003531106666601
2305,0.0020188964597468656
2306,0.0030433160343541392
2307,0.0033518801440224674
2308,0.003267711911230668
2309,0.0032572223759725506
2310,0.00446131162782645
2311,0.005562036075857667
2312,0.005478584834612192
2313,0.005924006557681911
2314,0.005664916632434923
2315,0.007140280974651191
2316,0.007826156027630584
2317,0.007949881303092364
2318,0.008329997126088532
2319,0.009553502959183918
2320,0.01023052081437008
2321,0.010483487682852427
2322,0.010525859448623668
2323,0.010628847193972378
2324,0.011871939085650556
2325,0.012983055284492876
2326,0.012820206854170225
2327,0.013257836756705648
2328,0.014587728190670201
2329,0.015089788470473481
2330,0.015464099721355404
2331,0.015645588998025386
2332,0.015533963985854472
2333,0.016919857957473566
2334,0.01754770004454772
2335,0.01804828026431702
2336,0.018103276800936742
2337,0.0180835918333342
2338,0.018007645522666867
2339,0.019305923964724577
2340,0.020243452356933308
2341,0.020376350528243225
2342,0.020410402475975774
2343,0.02040627140649816
2344,0.020517524421391355
2345,0.02043842878109447
2346,0.021963075736473086
2347,0.02257895282487084
2348,0.02289730504222257
2349,0.022970867220829735
2350,0.022912522530054148
2351,0.024049215991008118
2352,0.02491792972765825
2353,0.025244606391232743
2354,0.025347073336492356
2355,0.025383449706696506
2356,0.026543819325986342
2357,0.027708703348872033
2358,0.027642252947053775
2359,0.027792976033932822
2360,0.027882485114645365
2361,0.028949200632875854
2362,0.029939149653358584
2363,0.0301103720586588
2364,0.0302245923360581
2365,0.030411999711068304
2366,0.03159957069205923
2367,0.03259372362728664
2368,0.03269451896344301
2369,0.032613449517823134
2370,0.032638426195508295
2371,0.03399525956702538
2372,0.03481324575922517
2373,0.03505722209440643
2374,0.03527123994839179
2375,0.035198254478792004
2376,0.03522678960164658
2377,0.03525193582947276
2378,0.03646457716781931
2379,0.03733684222799178
2380,0.03728260928585284
2381,0.03757667465002072
2382,0.037497467824814515
2383,0.037828638948727344
2384,0.03904920081134618
2385,0.03971934683123603
2386,0.03959223311879227
2387,0.03959641739631779
2388,0.0410205073057005
2389,0.04191110929589359
2390,0.042063014535365234
2391,0.04219457828399889
2392,0.04337432462291583
2393,0.044502565628035964
2394,0.04451309794502811
2395,0.04467471261813506
2396,0.04458471105222893
2397,0.045726294077242206
2398,0.04697790302694185
2399,0.046663961855692764
2400,0.047322599579156514
2401,0.04819185070298277
2402,0.049242478086713226
2403,0.04950233992976124
2404,0.05065164791690282
2405,0.05163075099490218
2406,0.051900139891633626
2407,0.052001543374829824
2408,0.05330536067023154
2409,0.0540426867770699
2410,0.05427999736584654
2411,0.05580374701287086
2412,0.056532967134388344
2413,0.05688380514919354
2414,0.05809615112901686
2415,0.05905043915364702
2416,0.05935571520544212
2417,0.0606791636099657
2418,0.06152166475693543
2419,0.0617366464696902
2420,0.06295237921974167
2421,0.06406278804591753
2422,0.06389035128908081
2423,0.06550358882260529
2424,0.06653724136568011
2425,0.06761753302442183
2426,0.06883078266439897
2427,0.07026478861852312
2428,0.07144665834420715
2429,0.07168989991944552
2430,0.07273296205260299
2431,0.074136262824339
2432,0.07547943177608052
2433,0.07614557477678911
2434,0.07753006151643686
2435,0.07865593823440843
2436,0.08021717089012052
2437,0.08116646561163364
2438,0.08133132762660204
2439,0.08252717426294899
2440,0.08342260749762363
2441,0.0850898497462582
2442,0.08620193596174443
2443,0.08742411527311965
2444,0.08830889397489475
2445,0.08871078680393175
2446,0.08989014863427265
2447,0.09105202553707976
2448,0.092514146950138
2449,0.09354225038663512
2450,0.09484812417786422
2451,0.09576434518299339
2452,0.09733354612805714
2453,0.09820350372664635
2454,0.0997139924324295
2455,0.10059257015450392
2456,0.10219752560419611
2457,0.10304930607594288
2458,0.10447451677831146
2459,0.10559962173988093
2460,0.10554142221897789
2461,0.10690755242065562
2462,0.10800081968286236
2463,0.10935440159189166
2464,0.11044916910777361
2465,0.11199452956286693
2466,0.11318303712289755
2467,0.11436074952421896
2468,0.11540786055215402
2469,0.11541282964009067
2470,0.11682985433604313
2471,0.11773653275590766
2472,0.11943503572089711
2473,0.12018397008392118
2474,0.12058029248566543
2475,0.12197137299139331
2476,0.12265900169055755
2477,0.1240127665688039
2478,0.12534426281533725
2479,0.1255157694850861
2480,0.12676948648085745
2481,0.12763402385833586
2482,0.12916918565830726
2483,0.13005115841845952
2484,0.13019557047470423
2485,0.13156273566423443
2486,0.1322947084022434
2487,0.13262280496640427
2488,0.13397449089833355
2489,0.13491373334593926
2490,0.13513307482392067
2491,0.13643818579343728
2492,0.1372647844668743
2493,0.13762044976758223
2494,0.13764713819769273
2495,0.13898562084186825
2496,0.13962767266298182
2497,0.13987436682181115
2498,0.13990752870436024
2499,0.14000994263458924
2500,0.1412350908063994
2501,0.14218923564192176
2502,0.14264243202649385
2503,0.14234240607922385
2504,0.14264726636675162
2505,0.14245993116826886
2506,0.14381186345523136
2507,0.14474239312769907
2508,0.14478659110286185
2509,0.1448096513049276
2510,0.14485894006030722
2511,0.1450357834027587
2512,0.14613858087892076
2513,0.1469214692995539
2514,0.14727637600641388
2515,0.1473211572475021
2516,0.14728961592996775
2517,0.14717896993549867
2518,0.14761325200906364
2519,0.14887335024387688
2520,0.14976316429119096
2521,0.1497792403754503
2522,0.14997827227550228
2523,0.1497801816781843
2524,0.14967335965194728
2525,0.14980354467244264
2526,0.14974760081739794
2527,0.14974977580486645
2528,0.1495776850864985
2529,0.1497710896441243
2530,0.14999635681433615
2531,0.14967987629742022
2532,0.1499344367786738
2533,0.14981070431369686
2534,0.14968854163211837
2535,0.14981651750671116
2536,0.1497872959386898
2537,0.14977539208969728
2538,0.14983194356768006
2539,0.14951558986444652
2540,0.14984276037340827
2541,0.14965510986000297
2542,0.14971370757046912
2543,0.14958887455060269
2544,0.14984267205635723
2545,0.14967548733230754
2546,0.14970029333526894
2547,0.14972063563534946
2548,0.1482805426646063
2549,0.14743656524027784
2550,0.14749831317343334
2551,0.14720841789841999
2552,0.14598112241104197
2553,0.14500849179310893
2554,0.1450078823284411
2555,0.14473639611746125
2556,0.14361489839833982
2557,0.14262451215364153
2558,0.1410319531085182
2559,0.13996084978086104
2560,0.13863388004792626
2561,0.13769887892294091
2562,0.13629560018400066
2563,0.13522513226813324
2564,0.13366918484547505
2565,0.13263522968621458
2566,0.1315244036409019
2567,0.12911175296990712
2568,0.12784807357621172
2569,0.12642555901910799
2570,0.1239672098401202
2571,0.12172514999676626
2572,0.11916607075938099
2573,0.11679208120078803
2574,0.1142626443528043
2575,0.11163128377523833
2576,0.10959318531690937
2577,0.10691068740567548
2578,0.10432234950488688
2579,0.10210811274716476
2580,0.09974644476722035
2581,0.0970748686756341
2582,0.09333348247483392
2583,0.0900192914343989
2584,0.08720417427952061
2585,0.0847373209398594
2586,0.08242445822466901
2587,0.07879042460603866
2588,0.07527638761324995
2589,0.07271443660612797
2590,0.07009747483301355
2591,0.06654511968312592
2592,0.06305389385340963
2593,0.060332513124677585
2594,0.056577888546571045
2595,0.05316276020965698
2596,0.0494003525842709
2597,0.04585035427222043
2598,0.04312412565351703
2599,0.039683273578422974
2600,0.03648527997109003
2601,0.03260120835669474
2602,0.02907835016882482
2603,0.025157302326914106
2604,0.02045844481443471
2605,0.016673614435749832
2606,0.012877044219163084
2607,0.009901049971373749
2608,0.005621016341431469
2609,0.000888250540210047
2610,-0.0027049673144924195
2611,-0.006810406671104506
2612,-0.009801196050364974
2613,-0.013822606964404942
2614,-0.0187724404215184
2615,-0.022342387706860797
2616,-0.02602629249492828
2617,-0.02933691944652756
2618,-0.033356016972796415
2619,-0.03697089414484613
2620,-0.04097397788432238
2621,-0.04443685717176226
2622,-0.04819245734312928
2623,-0.05151497991252421
2624,-0.05561360543317407
2625,-0.05899365596642675
2626,-0.061716779819950086
2627,-0.06562630608182303
2628,-0.0689000849097189
2629,-0.07140340637865522
2630,-0.07528846462614996
2631,-0.0783301326781596
2632,-0.08101881670234344
2633,-0.08341502734628171
2634,-0.08619189631549208
2635,-0.08964429730670101
2636,-0.0929729981107343
2637,-0.09575733892526693
2638,-0.0985178465302923
2639,-0.10052317299750876
2640,-0.102996963162621
2641,-0.10553308474554475
2642,-0.1079156949721144
2643,-0.11034547636669097
2644,-0.11454240513782445
2645,-0.11778019347651834
2646,-0.12021867526077167
2647,-0.12272269934978926
2648,-0.12497691423738881
2649,-0.12780486099684704
2650,-0.12979888409570234
2651,-0.1323099382881447
2652,-0.13343808417769198
2653,-0.135009266731999
2654,-0.13713387017603768
2655,-0.13985018697261292
2656,-0.14241962629103408
2657,-0.14449894330525467
2658,-0.1457572864852033
2659,-0.14753705802067008
2660,-0.14977320206168623
2661,-0.1507406934267991
2662,-0.15230408649116353
2663,-0.15463198890568405
2664,-0.15571654738543084
2665,-0.15693965415853092
2666,-0.15813000174539438
2667,-0.15944251588005923
2668,-0.16041685264580754
2669,-0.1620208548625925
2670,-0.16287746925228305
2671,-0.1642632781077814
2672,-0.1653132950131155
2673,-0.16673345146486812
2674,-0.16749938184044288
2675,-0.16797283276812452
2676,-0.1694775047512241
2677,-0.17008063601089685
2678,-0.1705324749553811
2679,-0.17190527912665454
2680,-0.17271389773644252
2681,-0.1742845039756287
2682,-0.17501575259452193
2683,-0.17535350922838677
2684,-0.17536498674091566
2685,-0.17650723819475214
2686,-0.17761058468159005
2687,-0.17755298441870213
2688,-0.17763111741685228
2689,-0.1790151826093117
2690,-0.17977679060952506
2691,-0.1801552250972209
2692,-0.18014733436731925
2693,-0.18017991856027119
2694,-0.18037820822245867
2695,-0.1799723696618049
2696,-0.1801379915763819
2697,-0.18151575549044333
2698,-0.18229017117356267
2699,-0.18249672142332596
2700,-0.18249804924090438
2701,-0.18259686145980225
2702,-0.18264010591826627
2703,-0.18217463641446446
2704,-0.18255895105198114
2705,-0.1825859711870584
2706,-0.18252448618917394
2707,-0.18228813232166943
2708,-0.1810928692279101
2709,-0.1802912489931186
2710,-0.18003453939115632
2711,-0.1800892315790291
2712,-0.18019050070732023
2713,-0.18005136464786745
2714,-0.18000342027848826
2715,-0.1789548830700371
2716,-0.17800597484102357
2717,-0.1776987128268082
2718,-0.17772165300733395
2719,-0.1778971964309026
2720,-0.17764998200393353
2721,-0.17653851826689237
2722,-0.17542240732433573
2723,-0.17520046623917288
2724,-0.17526424149979467
2725,-0.17506567082437338
2726,-0.1740217343354444
2727,-0.17292100566660223
2728,-0.17280949730491132
2729,-0.1726436406457206
2730,-0.1714423740525544
2731,-0.1704238686437065
2732,-0.17031500890738865
2733,-0.17020687001258503
2734,-0.16897959897789425
2735,-0.167893552170434
2736,-0.1680583241834444
2737,-0.16663377232683763
2738,-0.16572308355991583
2739,-0.16539136623822995
2740,-0.16428278806297186
2741,-0.16327011661633284
2742,-0.16293985277449133
2743,-0.16153524432112068
2744,-0.16053034860330856
2745,-0.16040245437765946
2746,-0.15909648614007146
2747,-0.15830939314822
2748,-0.15792826514271163
2749,-0.15673941477233422
2750,-0.155883466956119
2751,-0.1558410564321479
2752,-0.15556499648832917
2753,-0.15457607791782688
2754,-0.15357029067959635
2755,-0.15326957059397098
2756,-0.15329711861880696
2757,-0.1520083371109025
2758,-0.1509082075529417
2759,-0.15067044612038133
2760,-0.14965808363165542
2761,-0.14866776159014597
2762,-0.14841282762457497
2763,-0.14822079677320588
2764,-0.1471184720208458
2765,-0.14593426117121586
2766,-0.14591713392518374
2767,-0.14574754842064597
2768,-0.14437719385599096
2769,-0.14365955659200863
2770,-0.14331511451392637
2771,-0.14240928577344797
2772,-0.14132402103071104
2773,-0.1408538043290965
2774,-0.14090860864133783
2775,-0.13958354886323907
2776,-0.13870417256602094
2777,-0.13842532399424753
2778,-0.13722073614783412
2779,-0.13626924754715872
2780,-0.13609625469991757
2781,-0.13599587419982623
2782,-0.13468886867883353
2783,-0.13382647863627245
2784,-0.13381021132037688
2785,-0.13233090545774878
2786,-0.13125426160616002
2787,-0.13115154345514518
2788,-0.12997354756627558
2789,-0.12895022150529223
2790,-0.1288177643306298
2791,-0.12870671472355333
2792,-0.12740048954919123
2793,-0.126583844186746
2794,-0.126205930011848
2795,-0.12495898525689736
2796,-0.1240985803724577
2797,-0.12407839552600218
2798,-0.12378093990133873
2799,-0.12283048163797054
2800,-0.12190109070306226
2801,-0.1213926387363635
2802,-0.12019430554830197
2803,-0.11906874453959912
2804,-0.11876384296497253
2805,-0.11771738373247367
2806,-0.11670970326310351
2807,-0.11640197059512249
2808,-0.11526507583439462
2809,-0.11436496317114947
2810,-0.11414813794199559
2811,-0.1126584778314725
2812,-0.11189945030550105
2813,-0.11148117958608376
2814,-0.11032024341911156
2815,-0.10949168002125491
2816,-0.10911531952208026
2817,-0.10764139816574113
2818,-0.10672283412855618
2819,-0.10671087432675251
2820,-0.10549568378618238
2821,-0.10467019662151034
2822,-0.10425295551262596
2823,-0.10277919510124876
2824,-0.10224546334367203
2825,-0.10186704495915223
2826,-0.10071662639752935
2827,-0.09981566648575278
2828,-0.09943995699063564
2829,-0.09805755803046734
2830,-0.0972513141716876
2831,-0.09688929235643175
2832,-0.0956519664759521
2833,-0.09465111810085883
2834,-0.09452703469770035
2835,-0.09429048242010674
2836,-0.09331844416223492
2837,-0.0923004602924869
2838,-0.09211203276785362
2839,-0.09072799969606093
2840,-0.0899240686224569
2841,-0.08960834423564255
2842,-0.08817956179408189
2843,-0.08734333166598601
2844,-0.08725015329449769
2845,-0.08582436360066346
2846,-0.08482689430899505
2847,-0.08479531766678028
2848,-0.08328700726715069
2849,-0.08234893353130837
2850,-0.08220158680300618
2851,-0.08100586892426032
2852,-0.08005507390237604
2853,-0.0797421404174277
2854,-0.07990788270860465
2855,-0.07829737050957047
2856,-0.07774285666640468
2857,-0.07734791786696048
2858,-0.07596607382672445
2859,-0.07526460673605033
2860,-0.07503289620125916
2861,-0.0749040304188312
2862,-0.0736996916766543
2863,-0.07277830447361806
2864,-0.07258446440360315
2865,-0.07235241677141249
2866,-0.07122739180597724
2867,-0.0702224557546062
2868,-0.07021078020938526
2869,-0.0699901764616722
2870,-0.06873142804424265
2871,-0.06817924472987519
2872,-0.06770428449560878
2873,-0.06738408893100274
2874,-0.0676028402405143
2875,-0.06629641473815874
2876,-0.06535807257274152
2877,-0.06521406415946526
2878,-0.06555083104463266
2879,-0.06507094336462449
2880,-0.06512661687594234
2881,-0.06376020447935435
2882,-0.06288076731473814
2883,-0.0627652274281961
2884,-0.06275201409742065
2885,-0.06270207796888345
2886,-0.06246747706579678
2887,-0.061378254560524086
2888,-0.06063545155808543
2889,-0.06053300592199224
2890,-0.06039860172599979
2891,-0.060608930317457566
2892,-0.06036950463023553
2893,-0.058786304763988106
2894,-0.05805357609291392
2895,-0.057789925894452976
2896,-0.05798635199904639
2897,-0.05812977493764445
2898,-0.0575887145482416
2899,-0.05646638444478086
2900,-0.05568341691980005
2901,-0.055476262643071095
2902,-0.05543702176369528
2903,-0.05531096007519021
2904,-0.055569980845545826
2905,-0.05550300303131085
2906,-0.05514740990610283
2907,-0.05406228679469085
2908,-0.05309049243697629
2909,-0.05277817372331831
2910,-0.05293534778403295
2911,-0.053124303347612756
2912,-0.052820539989453415
2913,-0.05288443139676916
2914,-0.051591916120233235
2915,-0.05082906265757516
2916,-0.05055162212353816
2917,-0.050383953089394
2918,-0.05054517460300503
2919,-0.05052646717601095
2920,-0.05050178863975718
2921,-0.049124311347770566
2922,-0.04839223418951005
2923,-0.04812446424935424
2924,-0.048076546611005695
2925,-0.047950284906080595
2926,-0.04809929110677795
2927,-0.048048359815467276
2928,-0.04673618818496636
2929,-0.045833166547097764
2930,-0.045750452749202
2931,-0.04561555599402082
2932,-0.0455433276945726
2933,-0.045627035431841254
2934,-0.044355282403258464
2935,-0.04363649044525936
2936,-0.04344337976025015
2937,-0.04317506089370697
2938,-0.04336859938463263
2939,-0.04303082756419396
2940,-0.04318062739955622
2941,-0.04295032780295605
2942,-0.041823525519881465
2943,-0.040994012279986565
2944,-0.04066850098219285
2945,-0.04061888180219084
2946,-0.04105292944525948
2947,-0.040773190589042344
2948,-0.04088472820149844
2949,-0.04088424389721453
2950,-0.04058338929115919
2951,-0.04068145032139988
2952,-0.040782175897623944
2953,-0.04076055566934181
2954,-0.04049251284077297
2955,-0.0393347549520175
2956,-0.03851274394349749
2957,-0.03817620478373302
2958,-0.03851635210445775
2959,-0.0383378318870789
2960,-0.03846381160526073
2961,-0.038500604607658355
2962,-0.038238094973133345
2963,-0.0371686884494594
2964,-0.0361421718886615
2965,-0.03591880691416169
2966,-0.03572293025561781
2967,-0.03570799895483745
2968,-0.035907326583483945
2969,-0.03571484313807308
2970,-0.03587155404687691
2971,-0.03585057123510914
2972,-0.035885776808894695
2973,-0.03455507120217069
2974,-0.033626295676021656
2975,-0.033558388528498746
2976,-0.03338247092564459
2977,-0.033295967458301774
2978,-0.03337741139748763
2979,-0.033649421226221846
2980,-0.03330702302492388
2981,-0.03323480745057384
2982,-0.032177662043245334
2983,-0.0311633148060664
2984,-0.030873976407396232
2985,-0.030960845665746535
2986,-0.03087265784943034
2987,-0.03084913837289319
2988,-0.031009522051311578
2989,-0.03096000406239472
2990,-0.03071807120229394
2991,-0.030874958240837403
2992,-0.029626520655266993
2993,-0.028514143811155086
2994,-0.028544078495668278
2995,-0.028388408408229926
2996,-0.028490832344423015
2997,-0.028393344794843376
2998,-0.02840304439501345
2999,-0.02870259530373207
3000,-0.02872107966556398
3001,-0.02850917034425627
3002,-0.028412447248282537
3003,-0.02854887794845105
3004,-0.028436212297940525
3005,-0.028611125694568824
3006,-0.028402504385992774
3007,-0.027131225643132834
3008,-0.026322310487473514
3009,-0.026143691766318113
3010,-0.025958081776802155
3011,-0.026102874629379047
3012,-0.026127672556743902
3013,-0.026070155175477287
3014,-0.026076396200585432
3015,-0.02610395400217988
3016,-0.025839753172214933
3017,-0.024702419732624364
3018,-0.0238064549610266
3019,-0.023596389076354023
3020,-0.0237352427941043
3021,-0.023839357434763966
3022,-0.023937363369216577
3023,-0.023838510472431632
3024,-0.02367904051742813
3025,-0.02366318125530524
3026,-0.02362149214949949
3027,-0.022307327391570538
3028,-0.02137538395282723
3029,-0.021321820203228717
3030,-0.021346236688930664
3031,-0.02136142358420882
3032,-0.021208663603171817
3033,-0.0210781917108517
3034,-0.021109002915443025
3035,-0.02103907220059395
3036,-0.0213285672151394
3037,-0.0210719372579171
3038,-0.021125869539744796
3039,-0.02111850776409206
3040,-0.02128866207453964
3041,-0.021045587662808382
3042,-0.021182684165220813
3043,-0.021154675895837933
3044,-0.021165402699141612
3045,-0.021144720444763312
3046,-0.021282586753542165
3047,-0.021286645135931787
3048,-0.021038259251355766
3049,-0.021160232794884177
3050,-0.02112358733156601
3051,-0.021112344470503985
3052,-0.02102710689889105
3053,-0.021260081897952157
3054,-0.021233538950639345
3055,-0.021308290626457813
3056,-0.02111608252235912
3057,-0.02095989037330636
3058,-0.021085587231275342
3059,-0.021278686815802167
3060,-0.021310974923594055
3061,-0.021178195853113254
3062,-0.02119919832477586
3063,-0.02123587631569025
3064,-0.02099965483369724
3065,-0.020984807779476686
3066,-0.02125270513920416
3067,-0.021195332575364725
3068,-0.021279219307963834
3069,-0.021187039132336008
3070,-0.021062037125229416
3071,-0.021222144304609992
3072,-0.021156960996298043
3073,-0.021253432846398385
3074,-0.020968019030503743
3075,-0.02125425649098662
3076,-0.021007057336892954
3077,-0.021095329497819233
3078,-0.0210927062933729
3079,-0.021238329723630024
3080,-0.0210792673149626
3081,-0.019825377912622302
3082,-0.01876649652527688
3083,-0.0186806234081861
3084,-0.018799560063343036
3085,-0.018605848211571643
3086,-0.01883278485426792
3087,-0.01897677817445496
3088,-0.018719453057873654
3089,-0.018770434311766525
3090,-0.018642957095111184
3091,-0.018916131281392683
3092,-0.01879489518081402
3093,-0.018647461903300203
3094,-0.018858704853030706
3095,-0.018819692785091057
3096,-0.018473904029496842
3097,-0.018710747151296045
3098,-0.018902020396088473
3099,-0.018821545542437763
3100,-0.0187965041517854
3101,-0.018712520144807263
3102,-0.01740315650212593
3103,-0.016494675596294674
3104,-0.016383468713966957
3105,-0.016219251597217595
3106,-0.016280606505270273
3107,-0.016362046644857582
3108,-0.016488471400051757
3109,-0.01627161445020869
3110,-0.016221468359279
3111,-0.016506645565737315
3112,-0.01642164926131179
3113,-0.016326210603972734
3114,-0.016336094124794635
3115,-0.01626134190582347
3116,-0.016311354987166134
3117,-0.01606639720226033
3118,-0.016304762212091786
3119,-0.01624688583686753
3120,-0.016466382997346547
3121,-0.01606545486555963
3122,-0.016416494552568803
3123,-0.01640971506532696
3124,-0.016128731143106683
3125,-0.01641257361170581
3126,-0.01633631485412428
3127,-0.016519815782153786
3128,-0.01626906423214427
3129,-0.01631671935049445
3130,-0.016151960655712103
3131,-0.015942065484495442
3132,-0.014860748428189305
3133,-0.014027380738338376
3134,-0.013765862416611601
3135,-0.013900064217200631
3136,-0.013944879175178783
3137,-0.013861471461502788
3138,-0.013808599345889535
3139,-0.013799506201546635
3140,-0.01390343592323354
3141,-0.013857099656093675
3142,-0.013602690701906029
3143,-0.012629272703854494
3144,-0.011721891902563676
3145,-0.011535783404902657
3146,-0.011328679538171921
3147,-0.011343599056021909
3148,-0.01129260239209617
3149,-0.011461150716117873
3150,-0.011437246587468768
3151,-0.01144355471538754
3152,-0.011298085058629004
3153,-0.011481064650954522
3154,-0.011384057952412088
3155,-0.01130728783943309
3156,-0.01124047442567842
3157,-0.011323878623797407
3158,-0.011323580023570184
3159,-0.01148557126614353
3160,-0.011485649022079434
3161,-0.011472291596744162
3162,-0.011446723706605872
3163,-0.011343508783712312
3164,-0.011379520948697982
3165,-0.009947571704624101
3166,-0.009161307353573926
3167,-0.008947689085353303
3168,-0.008949779714989461
3169,-0.00895538385553676
3170,-0.009018653811966822
3171,-0.009141103002563676
3172,-0.00886930002922552
3173,-0.008623425854816619
3174,-0.008841888825342589
3175,-0.008961105961781022
3176,-0.008868253051322246
3177,-0.00896599203369428
3178,-0.009193979907859876
3179,-0.008831922167750111
3180,-0.009044194291725663
3181,-0.009116199858043968
3182,-0.00865371255960744
3183,-0.0075407544653311375
3184,-0.006558367374677409
3185,-0.006621083494360682
3186,-0.006524303789687552
3187,-0.006378262301733137
3188,-0.00650084743703893
3189,-0.0064720511082480454
3190,-0.006340172013350956
3191,-0.006517477350514265
3192,-0.006673629623248525
3193,-0.006408144175724221
3194,-0.006311411515511721
3195,-0.006542027471884514
3196,-0.006415067352539812
3197,-0.006412537683514802
3198,-0.006316071543644482
3199,-0.006460429017569059
3200,-0.006413455024317887
3201,-0.006588713886229503
3202,-0.006634193020977983
3203,-0.0065363501555501255
3204,-0.006214058214945746
3205,-0.0065646760210718086
3206,-0.006409076559057184
3207,-0.006439638002143921
3208,-0.006370198702107562
3209,-0.006323221460300449
3210,-0.006520934389767879
3211,-0.006335868950509193
3212,-0.006661158946920109
3213,-0.006297462967657635
3214,-0.006559791014689085
3215,-0.00656483622439152
3216,-0.00638356107926164
3217,-0.0065445692474853144
3218,-0.0064606322820655645
3219,-0.006498444104599416
3220,-0.006346145460385252
3221,-0.006453677606587615
3222,-0.00638481044850139
3223,-0.0065184329805937635
3224,-0.006408900151849201
3225,-0.006450633510369161
3226,-0.006557090132459119
3227,-0.006436009002100501
3228,-0.0063327483390826994
3229,-0.006574172321308465
3230,-0.00635138792829029
3231,-0.005269650085959568
3232,-0.004375538986834709
3233,-0.00382950256274637
3234,-0.003907152934803964
3235,-0.004080225457345427
3236,-0.004062206084338252
3237,-0.003885216233087156
3238,-0.0040307044199934285
3239,-0.004042039906708642
3240,-0.0041167533370781075
3241,-0.004030815124147824
3242,-0.003908421985567694
3243,-0.003872413070687191
3244,-0.00398300624984634
3245,-0.0038086190070223693
3246,-0.003929932656861596
3247,-0.004121747850953874
3248,-0.003905451385953388
3249,-0.004068597761175621
3250,-0.004115777063452241
3251,-0.003860825405972975
3252,-0.0039049240742351004
3253,-0.0039857833826988515
3254,-0.003919092754324491
3255,-0.004112281499422843
3256,-0.0042995706009387145
3257,-0.0038767449839414367
3258,-0.0037429111325736728
3259,-0.003930814258635306
3260,-0.0038776525575339757
3261,-0.00420863389608219
3262,-0.004086682020662247
3263,-0.004285620139497782
3264,-0.004124330424735315
3265,-0.004149164416899149
3266,-0.004106231222078738
3267,-0.004106843904175156
3268,-0.004132348234199808
3269,-0.004026499710073447
3270,-0.004322116528726773
3271,-0.004038304235048627
3272,-0.00414082041671606
3273,-0.004141298044425093
3274,-0.0038656403291343236
3275,-0.0027821121561483505
3276,-0.0017265391447034953
3277,-0.0016622633654360093
3278,-0.001582661415861765
3279,-0.001625097982208242
3280,-0.0016023271462757456
3281,-0.001809281979157877
3282,-0.0015258304017453704
3283,-0.0015273686629167487
3284,-0.001638546836167619
3285,-0.0017306310392939026
3286,-0.0016379286256763903
3287,-0.0016014333062548893
3288,-0.00025242944155146063
3289,0.0008823034481569149
3290,0.0009965217761155163
3291,0.0009485740490876383
3292,0.0006661299704705713
3293,0.001007894865401261
3294,0.0007523613401612378
3295,0.000906258164977909
3296,0.0007645110069985467
3297,0.0008428740357751025
3298,0.0010781675938560593
3299,0.0009471861492466669
3300,0.0009055369206802831
3301,0.0008540308354972682
3302,0.0009420177292512476
3303,0.0006649168280581028
3304,0.0008662147133178578
3305,0.0006070871218959698
3306,0.0006630610581321237
3307,0.0007469554893633336
3308,0.0010739875342874261
3309,0.0009557841371140999
3310,0.0007745518987249168
3311,0.0008797838511803762
3312,0.0008471334483202425
3313,0.0007172278993682373
3314,0.0008333860213872473
3315,0.0008198529020054332
3316,0.0008369162922399631
3317,0.0008084534199334139
3318,0.0008018869649381175
3319,0.0008723815269023767
3320,0.0007928835714663224
3321,0.0006349361001820686
3322,0.0008023400427035801
3323,0.0009436208194639508
3324,0.0007723008630029098
3325,0.0009007845511960212
3326,0.0007507908223701805
3327,0.0009774547503124678
3328,0.0008850916039622749
3329,0.000601794367109575
3330,0.0006928962120926294
3331,0.000903042098144227
3332,0.0008689158682568649
3333,0.0007508904678009729
3334,0.0008869574268915532
3335,0.002223769170242489
3336,0.003167398378130844
3337,0.0031665192092226783
3338,0.0034760523260002943
3339,0.00349133562131943
3340,0.0033420499140120047
3341,0.00330374851361043
3342,0.0032208324013794703
3343,0.0031004707188014165
3344,0.003260408610260162
3345,0.0033046075132329004
3346,0.003245296771987903
3347,0.0029677298336017077
3348,0.0032490607416464454
3349,0.0032581747575943293
3350,0.0031700972844615153
3351,0.0030358139434466676
3352,0.003252783161623177
3353,0.00321618257940839
3354,0.0032584458800260655
3355,0.003340867122049475
3356,0.003251692019902424
3357,0.003365864669952401
3358,0.003446724839687019
3359,0.003044211300282524
3360,0.003170431787775634
3361,0.003429475079735436
3362,0.0032298210838091687
3363,0.0031087485390186667
3364,0.0032624784584479867
3365,0.0033059314220388646
3366,0.003276115105073428
3367,0.0034738317495662157
3368,0.0031686284518730426
3369,0.003495901565622173
3370,0.003319070012339907
3371,0.0032547288407573883
3372,0.0034396411922292
3373,0.0032331147083829166
3374,0.0033528149477040268
3375,0.003209488836904766
3376,0.0030980882753678346
3377,0.0032520353852557807
3378,0.0032298185307348378
3379,0.0035474309761479366
3380,0.0030532673715468
3381,0.0031210475117698397
3382,0.0031064066508842405
3383,0.0032262506556846966
3384,0.0032656323983664024
3385,0.003108607977266266
3386,0.0032066154164479264
3387,0.0032376783743817217
3388,0.003293019220750896
3389,0.003310793390316185
3390,0.0030432055251895913
3391,0.0031870801287405648
3392,0.00354700191013039
3393,0.0032639146561474785
3394,0.0033082670965602777
3395,0.0031389527408414225
3396,0.0032438773872781592
3397,0.0032344574003586274
3398,0.003258204749633255
3399,0.003290068205500021
3400,0.0032670814799948002
3401,0.0033362766385102377
3402,0.0018888805644219624
3403,0.0008667282795286296
3404,0.0010047079693304242
3405,0.0007517079759416193
3406,0.0009198403569940883
3407,0.0010120461122400527
3408,0.0008746121825507302
3409,0.0011510336238220408
3410,0.0009911972177087144
3411,0.0010068349670706443
3412,0.0010470372404106888
3413,0.0010709272185575706
3414,0.0008309451971348276
3415,0.0008174892717922311
3416,0.001093725876081567
3417,0.0007956053471541507
3418,0.0006421032115407213
3419,0.0009481640174513254
3420,0.0008059228831486532
3421,0.0008276793208257079
3422,0.0009371256966394259
3423,0.0010276591248184034
3424,0.001069285472168759
3425,0.0008291817870148362
3426,0.0008405133203120228
3427,0.0008653826021513322
3428,0.0007537945633258946
3429,0.0009622082738890615
3430,0.0008154016556551978
3431,0.001264456567138755
3432,0.0008046029857856331
3433,0.0007255087971300285
3434,0.0006028557408248223
3435,0.0009496868967191036
3436,0.0008883642294341184
3437,0.0006544511670272457
3438,0.0008443254811992133
3439,0.000691651073883935
3440,0.0008725708946923283
3441,0.0010792580837210308
3442,0.0008193735330152374
3443,0.0006654217244907673
3444,0.0008344826675664014
3445,0.000945486855760676
3446,0.0010229204692211327
3447,0.0008857590764469467
3448,0.0007895625428788253
3449,0.0006815148538057903
3450,0.0008807843426544762
3451,0.0011177534898152387
3452,0.000982981273352114
3453,0.0008694450380592149
3454,0.0008681918949889779
3455,0.0005443003251224105
3456,0.0006807712300846817
3457,0.0006672937342838653
3458,0.0009043122170372573
3459,0.0010608579094121308
3460,0.0008434342553080132
3461,0.0011909051063048724
3462,0.002061397201190624
3463,0.003229784976900444
3464,0.003281635159591106
3465,0.003279896074610619
3466,0.003361285972420128
3467,0.0031933880706725036
3468,0.003245455620216814
3469,0.0032861008820687407
3470,0.00334157606783784
3471,0.003270666278654992
3472,0.003175887993498103
3473,0.0048210144512065446
3474,0.005295798859172867
3475,0.005470925526408716
3476,0.0058690230620053775
3477,0.005635139172575933
3478,0.005600814693623924
3479,0.005864095879849825
3480,0.005683469460061723
3481,0.0058249857419924
3482,0.005723587404829002
3483,0.005990502514085824
3484,0.005839082682103175
3485,0.005648867356649125
3486,0.005763863404945206
3487,0.005804155496327531
3488,0.005904307530525437
3489,0.005907506624021531
3490,0.0070819842041492526
3491,0.0077700123278962455
3492,0.008135960021881517
3493,0.00797126145523307
3494,0.007890108251709842
3495,0.00818196555323028
3496,0.0081262808411782
3497,0.008206351023344705
3498,0.008173361840973344
3499,0.008097369158485454
3500,0.007976800931560885
3501,0.008353847616287031
3502,0.008205092339381952
3503,0.0081503468585079
3504,0.008003498679346892
3505,0.008166517380534118
3506,0.00818399428436465
3507,0.008202017166845075
3508,0.008119792976079383
3509,0.00802503205876804
3510,0.008180848979883882
3511,0.007911974514549135
3512,0.008011950631901266
3513,0.009549714057243535
3514,0.010609587801730387
3515,0.0106671302443661
3516,0.010647968438192972
3517,0.010877243706859226
3518,0.01063428061164141
3519,0.010638874491128419
3520,0.01072592930535461
3521,0.010742829119535337
3522,0.010719308947339882
3523,0.010601539511670425
3524,0.010748693952049738
3525,0.010574819185076948
3526,0.010628289497009193
3527,0.010657203772123891
3528,0.01086538263255736
3529,0.010457516699807495
3530,0.01068883131622423
3531,0.010712538679912745
3532,0.010556474036399978
3533,0.010437142609102747
3534,0.010769077671619404
3535,0.010811287682191651
3536,0.010562383754017279
3537,0.010740354498777844
3538,0.010584247809430626
3539,0.011824076755383309
3540,0.012956235510626343
3541,0.013004395142481301
3542,0.013148751106883759
3543,0.013050911987781508
3544,0.013121500747965304
3545,0.012974357115927258
3546,0.012886555978021661
3547,0.01313799887569839
3548,0.012847041846537092
3549,0.01314779474813234
3550,0.012932822162799125
3551,0.013190333985267364
3552,0.01324131533074356
3553,0.013164180251978897
3554,0.012845147367914592
3555,0.013044390669527423
3556,0.013063060014058473
3557,0.012944950078344985
3558,0.013000515096132917
3559,0.013011619425997236
3560,0.013082117451687058
3561,0.013033987293329243
3562,0.013074340332664651
3563,0.012785878964896524
3564,0.013238611702420347
3565,0.012908180700837742
3566,0.01298462767679923
3567,0.013206898657395048
3568,0.013013422616048287
3569,0.01321165864695815
3570,0.013150304401674376
3571,0.013094964217902356
3572,0.012943818427995588
3573,0.013078911813604474
3574,0.013051362035019335
3575,0.01315321265158361
3576,0.013080905422071307
3577,0.01310665941488897
3578,0.013119183028136097
3579,0.012873746546415378
3580,0.011809980767262451
3581,0.010772028264248406
3582,0.010686003528800279
3583,0.01073930113771747
3584,0.01050564711292204
3585,0.010504733335766566
3586,0.010642824479032848
3587,0.010705536669263471
3588,0.010592978906973109
3589,0.010618892372463764
3590,0.011978726550244751
3591,0.012883021700824202
3592,0.012846937050590174
3593,0.011993733661049926
3594,0.010755122080474985
3595,0.010717100782367405
3596,0.01060641244970623
3597,0.010695503100228354
3598,0.01053068884260736
3599,0.01060620694178577
3600,0.010651619507163295
3601,0.010604383199144772
3602,0.010666387347991402
3603,0.010548837826753015
3604,0.010657566039955923
3605,0.010625969925305371
3606,0.010612248013557021
3607,0.01077704534827835
3608,0.01066379506543727
3609,0.010587007675484586
3610,0.010569785739624582
3611,0.01074790679752605
3612,0.01082102852561599
3613,0.010647861592229945
3614,0.010682727029271514
3615,0.010633022124662378
3616,0.01079970749426232
3617,0.010564472834525112
3618,0.010664014393878122
3619,0.01068954283788622
3620,0.01058429489833238
3621,0.010683666671743456
3622,0.01071267132086045
3623,0.010464497525509783
3624,0.010681446224250012
3625,0.010626530117725774
3626,0.010498560988998809
3627,0.010574710565450271
3628,0.010504434857437208
3629,0.010631843398735926
3630,0.010698166691872112
3631,0.01078436671121154
3632,0.010620442492489975
3633,0.01067085924592976
3634,0.010577106327703293
3635,0.010549174005997093
3636,0.010564222267439376
3637,0.010666433444748361
3638,0.010543513767847094
3639,0.010545707750206112
3640,0.010921190507573753
3641,0.010819601955373173
3642,0.010718879525735544
3643,0.010608464334439238
3644,0.010590702955297775
3645,0.010447831370734963
3646,0.010491537651670869
3647,0.010701473192251893
3648,0.01076423044082177
3649,0.010705008692665928
3650,0.01065230315892074
3651,0.01071082803187248
3652,0.010883556470298253
3653,0.010526915287864515
3654,0.01057938352626966
3655,0.010838044197691231
3656,0.010643497420564139
3657,0.010635318755140176
3658,0.010628285205565474
3659,0.01078284531483876
3660,0.01055868519220047
3661,0.01069900755826538
3662,0.01064529324782615
3663,0.010603446611052393
3664,0.010721659429949152
3665,0.010742472636364077
3666,0.010502138786784417
3667,0.009208818410032127
3668,0.00814977967872773
3669,0.00830273356632931
3670,0.00825639189760833
3671,0.00811134644278707
3672,0.008120159978839622
3673,0.008320816252833079
3674,0.008098387353939645
3675,0.008166057594452308
3676,0.0082381020673531
3677,0.008084257883061595
3678,0.008169890156408783
3679,0.008073234751021419
3680,0.007981331616880962
3681,0.00821160803817456
3682,0.008170296088936147
3683,0.00836231509726049
3684,0.008313868473588231
3685,0.008155550726412409
3686,0.008094640180154626
3687,0.008338596998350063
3688,0.008312914791834792
3689,0.008147745545650061
3690,0.008378533515465861
3691,0.008159360023649809
3692,0.008014658290710937
3693,0.008027135909324001
3694,0.00814889033836373
3695,0.008188299305675934
3696,0.008395044856890065
3697,0.008180025756520614
3698,0.008035720891374012
3699,0.008182628025744425
3700,0.008125371220222418
3701,0.008277662007259094
3702,0.0083042096307039
3703,0.008417391130005624
3704,0.008062027390113614
3705,0.00819435831970805
3706,0.008250529839774149
3707,0.00806310005344325
3708,0.008043206001036328
3709,0.00812392745979047
3710,0.00813666531018902
3711,0.008154252722503794
3712,0.00839991280375123
3713,0.008387243744128064
3714,0.008414230872914364
3715,0.00791094663730629
3716,0.008270058866813403
3717,0.008172859643443449
3718,0.007996457288769174
3719,0.008034891102911989
3720,0.00798301445533125
3721,0.008142493203485575
3722,0.008147300753066848
3723,0.00808703163620668
3724,0.00831258325114193
3725,0.00824778279878032
3726,0.007973624970411503
3727,0.008219986561793308
3728,0.008201795876201613
3729,0.009486119193906269
3730,0.010256861442513731
3731,0.010559603729538914
3732,0.010639416421518874
3733,0.010646720775488257
3734,0.010489076240992188
3735,0.010795741860297999
3736,0.010741193781863192
3737,0.010784092619640223
3738,0.010712397638868668
3739,0.010468263716097341
3740,0.010432240646262723
3741,0.010731926878883724
3742,0.010935636602733263
3743,0.010801698446368663
3744,0.010776846437332137
3745,0.010568568530301671
3746,0.010655894361664605
3747,0.010666249347166765
3748,0.010684280076956133
3749,0.01070764727240324
3750,0.010782457166523424
3751,0.010710602947692808
3752,0.010754113276354345
3753,0.010830170527637599
3754,0.010786139227964177
3755,0.010728328262676117
3756,0.010668885139841601
3757,0.010689231846334961
3758,0.010555138865972043
3759,0.010686812536646346
3760,0.010595818481061654
3761,0.010526779652856517
3762,0.01084609787632838
3763,0.010823656607057773
3764,0.010434242091368048
3765,0.010634285544625758
3766,0.010572083104624189
3767,0.01059277269564275
3768,0.010633261107553672
3769,0.010714798142594142
3770,0.01060804521920972
3771,0.010787318983974144
3772,0.0108170100945015
3773,0.01088543599194992
3774,0.010650007786393937
3775,0.010610503712900265
3776,0.010768606886359342
3777,0.01074532403068679
3778,0.010810438780756845
3779,0.010660208999996071
3780,0.010616567792758888
3781,0.010744468612017583
3782,0.01066432668534865
3783,0.01061625440543261
3784,0.010459027062881692
3785,0.010786687106001133
3786,0.011087261570892525
3787,0.012220337796030432
3788,0.012645511351582747
3789,0.012933514774823327
3790,0.013081266383268689
3791,0.012954647069634014
3792,0.012959281831347667
3793,0.014526890131488652
3794,0.015210513922640487
3795,0.015432541023640703
3796,0.015507357062108205
3797,0.015483388867222548
3798,0.01653672789904901
3799,0.01776579528274426
3800,0.01794446046715592
3801,0.018054929963295482
3802,0.01814233428952763
3803,0.01922534424458515
3804,0.020185996660147174
3805,0.020393846859440106
3806,0.021802875821433657
3807,0.022718651691007983
3808,0.0230203261140136
3809,0.024443594565090696
3810,0.025290915602115955
3811,0.025297965740510558
3812,0.0266984899913371
3813,0.02754089719646838
3814,0.027903493786782904
3815,0.02914807176273469
3816,0.030148527892398736
3817,0.031256402630910174
3818,0.032449239452063974
3819,0.03382735950548217
3820,0.03627578938751415
3821,0.037661440460881476
3822,0.038670955672612646
3823,0.04094517713175011
3824,0.04335035869087443
3825,0.04568030258305612
3826,0.04670721516979198
3827,0.048315188198070035
3828,0.05080640376285007
3829,0.05190314839422036
3830,0.05336257522876663
3831,0.05549431277706951
3832,0.05650568180292883
3833,0.056977819889714974
3834,0.05818248763884043
3835,0.05907935452041091
3836,0.0593915580408215
3837,0.060608068389610324
3838,0.06157248538872995
3839,0.06173309213764968
3840,0.061698033594262604
3841,0.06159891974696278
3842,0.06144215194440362
3843,0.061607875669589966
3844,0.06040530413811083
3845,0.059524309661297174
3846,0.05932698735262079
3847,0.05921119238853998
3848,0.05772070241518385
3849,0.056919513295338675
3850,0.056873793979603356
3851,0.056560276210097064
3852,0.05532184970619307
3853,0.05453750288144527
3854,0.054284812837583823
3855,0.05445744232415994
3856,0.05418255638839873
3857,0.05302890356932965
3858,0.052044030731185235
3859,0.051777494555248715
3860,0.05310396418288333
3861,0.053844727351009286
3862,0.054039122685331856
3863,0.05432727673175348
3864,0.054401023886622754
3865,0.05554206904522575
3866,0.05643464706615649
3867,0.0566382989624562
3868,0.05806773065643226
3869,0.05913127618466951
3870,0.06035390048859577
3871,0.06151159286422589
3872,0.06299816110828134
3873,0.06397963515183293
3874,0.06536856442900618
3875,0.06766148649885426
3876,0.06893635991540606
3877,0.07041639538803356
3878,0.07129637348456482
3879,0.07136197172548261
3880,0.07155611055582856
3881,0.07291896546621586
3882,0.07361481754942412
3883,0.07401061119723734
3884,0.07244686763374482
3885,0.07171144443056002
3886,0.07132543363931121
3887,0.07008121918817506
3888,0.06919852575346837
3889,0.06777755116661968
3890,0.06655788985343933
3891,0.06521917183729221
3892,0.06280480580631874
3893,0.060650385316104206
3894,0.05793926529105937
3895,0.05549544855490012
3896,0.05302507565474443
3897,0.05065324816600875
3898,0.048254274351742406
3899,0.045794562685794
3900,0.04327229859582794
3901,0.04078896991041237
3902,0.038747690534143044
3903,0.03627548977155665
3904,0.03369539714330205
3905,0.03134609705516262
3906,0.02879804554899284
3907,0.026575294541155457
3908,0.024132324623824405
3909,0.021832194367529388
3910,0.019264460257305625
3911,0.018048880108159405
3912,0.016579104329259756
3913,0.014011463371678698
3914,0.011869341535506258
3915,0.009600466352504795
3916,0.007047293743379441
3917,0.005668943965512276
3918,0.004340226418413123
3919,0.001958523748224673
3920,0.001115903765332757
3921,-0.000442480490510434
3922,-0.0014208404308058119
3923,-0.003003642205090863
3924,-0.0040176255333013175
3925,-0.0055935517912105584
3926,-0.006293108409786631
3927,-0.007673689525950479
3928,-0.008846645227050448
3929,-0.009127076646794494
3930,-0.010282429263431564
3931,-0.011309423344737158
3932,-0.011459030535584044
3933,-0.012768803575921552
3934,-0.013875519727622201
3935,-0.013875995577964081
3936,-0.015150244549103447
3937,-0.01612507407197288
3938,-0.016472713220708785
3939,-0.01732364561259768
3940,-0.018615706802909606
3941,-0.018815437452127173
3942,-0.018619155093615915
3943,-0.020096555562148368
3944,-0.02108976476471965
3945,-0.02120352801063084
3946,-0.021086984683210894
3947,-0.021243336896433245
3948,-0.02129558495557066
3949,-0.021163532041035372
3950,-0.021203374519227724
3951,-0.021189439247577414
3952,-0.021402135956678957
3953,-0.021242554169465837
3954,-0.02083440137652415
3955,-0.019715330670993833
3956,-0.018854293860071935
3957,-0.01876471225218767
3958,-0.018646745577401022
3959,-0.01866242427925651
3960,-0.018924748479990577
3961,-0.018710253717124405
3962,-0.018722277016983705
3963,-0.018891745557517995
3964,-0.020085966474757168
3965,-0.021095229126104873
3966,-0.021255372797002615
3967,-0.021160710074674204
3968,-0.021100660848999166
3969,-0.02127678744914572
3970,-0.021234384607098002
3971,-0.021304153939139807
3972,-0.020933221712009918
3973,-0.021127651226695597
3974,-0.02133984741485797
3975,-0.02248009609361868
3976,-0.02362326288192704
3977,-0.023603504392323463
3978,-0.023804742701502575
3979,-0.023781863310657136
3980,-0.02377245284991044
3981,-0.02380217227789836
3982,-0.024927639681921795
3983,-0.02584371690539647
3984,-0.026110831867147053
3985,-0.025949343657557303
3986,-0.026074817512249795
3987,-0.02616030441665597
3988,-0.025985770284818892
3989,-0.027326324077063268
3990,-0.028517901676064883
3991,-0.0284966647136226
3992,-0.02844488683833577
3993,-0.02849165745323966
3994,-0.028625617343005918
3995,-0.028490525225048795
3996,-0.029875381225179562
3997,-0.03060270412620635
3998,-0.03078623171677455
3999,-0.03091345361937081
4000,-0.030963630955135626
4001,-0.030775005143058237
4002,-0.031000158509236528
4003,-0.03221455342174949
4004,-0.03334852375030086
4005,-0.033340016386073534
4006,-0.03328455299016325
4007,-0.033223698341093365
4008,-0.03346019644089875
4009,-0.03321775951506409
4010,-0.033359518222369954
4011,-0.033435383782181735
4012,-0.03349280324214704
4013,-0.03353248770387164
4014,-0.033437572290136004
4015,-0.03342101325804009
4016,-0.033231658677691046
4017,-0.0334170428767709
4018,-0.03343215479752882
4019,-0.0334179695098252
4020,-0.03321218490652628
4021,-0.03352161046771135
4022,-0.03340593414857981
4023,-0.033606371829323474
4024,-0.03345400844099067
4025,-0.03333336449331285
4026,-0.03353785808634567
4027,-0.03203383740641041
4028,-0.031139373473967693
4029,-0.030950928530284555
4030,-0.030933156652773672
4031,-0.03079423681626167
4032,-0.031141638089275937
4033,-0.031178733532434617
4034,-0.03097126709089375
4035,-0.030856690877111494
4036,-0.03095544994159529
4037,-0.030967381040624575
4038,-0.030774476901485485
4039,-0.030908098647800853
4040,-0.030878773051732172
4041,-0.03081561311171721
4042,-0.02953924514576887
4043,-0.028717285743931464
4044,-0.028355261951072627
4045,-0.028364794086842306
4046,-0.02840314924899137
4047,-0.028511362132540966
4048,-0.028316230757768752
4049,-0.02860089361903381
4050,-0.02867681064086322
4051,-0.028286569124661497
4052,-0.02848676573653424
4053,-0.02834897992856992
4054,-0.028368839997086597
4055,-0.02850836309675645
4056,-0.02855449643492838
4057,-0.02855305295643831
4058,-0.028585024008345294
4059,-0.028695487887232814
4060,-0.028538488781313032
4061,-0.028673254839314006
4062,-0.02844127237404452
4063,-0.02703919303289135
4064,-0.026353020961535183
4065,-0.026010637706087063
4066,-0.025968074148015673
4067,-0.025908107730360053
4068,-0.025821340848999952
4069,-0.026036622515693403
4070,-0.02593175863072556
4071,-0.02595278179737713
4072,-0.026147310011174502
4073,-0.026119659706591247
4074,-0.02581035180925408
4075,-0.024794179258293858
4076,-0.02403107085312602
4077,-0.023762507605878093
4078,-0.023767453716161135
4079,-0.0236803548413215
4080,-0.02359302889305
4081,-0.02375970506552056
4082,-0.02353347240755982
4083,-0.02375646081920061
4084,-0.023586170570695814
4085,-0.023631942023526253
4086,-0.023801076760710454
4087,-0.02371930914051819
4088,-0.023711613278022077
4089,-0.023537568221062018
4090,-0.023703557483143015
4091,-0.023501046663379266
4092,-0.022266456991827152
4093,-0.02135841181317457
4094,-0.021277009965736497
4095,-0.021151408566413624
4096,-0.021151301829195886
4097,-0.021264886583174263
4098,-0.021259376339754096
4099,-0.01995206709540741
4100,-0.01896715236634509
4101,-0.018657173209199178
4102,-0.018760400716396643
4103,-0.018529139968894583
4104,-0.01874655908450108
4105,-0.01866944317299334
4106,-0.017524138040600455
4107,-0.016402956684155017
4108,-0.016301848923009725
4109,-0.016350846377232914
4110,-0.016194184481131364
4111,-0.01619045650936725
4112,-0.016186376025771804
4113,-0.016354237793206404
4114,-0.016241581948566713
4115,-0.01628651003066224
4116,-0.016390303799237456
4117,-0.01630385104249456
4118,-0.01618604206117331
4119,-0.016591083016210394
4120,-0.016174174279653536
4121,-0.016194367570412253
4122,-0.015971537591352496
4123,-0.0162001285913708
4124,-0.016196913590856822
4125,-0.016149496040327813
4126,-0.016233032782543365
4127,-0.016264406259097232
4128,-0.016058480358279434
4129,-0.016329349743708376
4130,-0.01629798886173145
4131,-0.016413972896721356
4132,-0.01636759503232771
4133,-0.016207850848287866
4134,-0.016258240868936527
4135,-0.016426955163302996
4136,-0.016171875740991867
4137,-0.017593208700851744
4138,-0.018576077412139052
4139,-0.018754196822377788
4140,-0.018853703012032083
4141,-0.020000615673155146
4142,-0.020857158527953584
4143,-0.021047174840443123
4144,-0.022651267630931296
4145,-0.024664230143144505
4146,-0.025942082478740122
4147,-0.027468685033869
4148,-0.02955697663553024
4149,-0.03222128939924321
4150,-0.034848004378074796
4151,-0.038432738278381263
4152,-0.04192827185911567
4153,-0.045803299887804495
4154,-0.048975831479938385
4155,-0.052869435555352555
4156,-0.05653943010199597
4157,-0.06036167143204622
4158,-0.06386516985185398
4159,-0.06789667982430364
4160,-0.0709891016552249
4161,-0.07371411015398255
4162,-0.07627907224705287
4163,-0.07856955425208481
4164,-0.08071239403599859
4165,-0.08207334163946178
4166,-0.08360378052763483
4167,-0.08431412702421597
4168,-0.08472125997324734
4169,-0.08478402598317362
4170,-0.08480200029756187
4171,-0.08478896598280379
4172,-0.08485990957969415
4173,-0.0845158784948287
4174,-0.08356370062615909
4175,-0.08248133490601432
4176,-0.08210005882585242
4177,-0.08071938704953603
4178,-0.0801614875812134
4179,-0.07855508183708786
4180,-0.07594089300474957
4181,-0.07367815302419418
4182,-0.06978628158788523
4183,-0.06500569294237309
4184,-0.06011793583653477
4185,-0.05549373278739377
4186,-0.050331977422654425
4187,-0.044339414747352125
4188,-0.037158240220455135
4189,-0.029763215239337844
4190,-0.022597040513697656
4191,-0.013550918490014777
4192,-0.00533841409681649
4193,0.0034329493074150563
4194,0.013178678814162603
4195,0.024244227460800707
4196,0.034925531116496884
4197,0.04596761880679159
4198,0.058004688845759954
4199,0.07138546965410564
4200,0.08590021528292673
4201,0.100778897122585
4202,0.11681002801464696
4203,0.1339355290951034
4204,0.15245709264547058
4205,0.17178029067664938
4206,0.1911796631937974
4207,0.21115452755626737
4208,0.23288431411106517
4209,0.2556649056358095
4210,0.279317600207327
4211,0.30504859018802266
4212,0.3319630521541839
4213,0.36134887325865583
4214,0.3927200676651515
4215,0.42485742050188746
4216,0.45903705326794775
4217,0.4957153491517469
4218,0.5337262818090305
4219,0.5723177551593203
4220,0.6114444917696376
4221,0.6506843430734786
4222,0.6911366468374008
4223,0.7310798086447319
4224,0.7703167988601578
4225,0.809404015328988
4226,0.8471954722553152
4227,0.8840359151056006
4228,0.9194503358709315
4229,0.9535827234561101
4230,0.9850401274299951
4231,1.0133357864971104
4232,1.0390534961615736
4233,1.0596936524591356
4234,1.0769444665551315
4235,1.0902960968159676
4236,1.0990770541017876
4237,1.102497855372293
4238,1.1016844512764297
4239,1.0973508392990199
4240,1.0808608466246215
4241,1.059539136902885
4242,1.0369630973083175
4243,1.0124681521421326
4244,0.9852685870376482
4245,0.9547125834458987
4246,0.9207528133270158
4247,0.8856489805598992
4248,0.8486895174127388
4249,0.8113725851524004
4250,0.7730429698291372
4251,0.7324793023314478
4252,0.6928646232105617
4253,0.6533854175303108
4254,0.614390517759869
4255,0.5750990674518138
4256,0.5359908115538732
4257,0.49703031182914864
4258,0.45784918266924074
4259,0.41892944841664553
4260,0.37960637614192017
4261,0.34042162204757676
4262,0.30156759363545066
4263,0.26378579060170754
4264,0.22678548548256094
4265,0.19009258333056595
4266,0.15364631861854963
4267,0.11814124010106081
4268,0.08377554614950786
4269,0.05086642957273861
4270,0.01793460750235214
4271,-0.014672795236562508
4272,-0.04532896903596335
4273,-0.07493087170876182
4274,-0.10443569584914444
4275,-0.13346371864233947
4276,-0.16112990444296318
4277,-0.18726081781828485
4278,-0.2120332139343067
4279,-0.236303132770908
4280,-0.25926193068552844
4281,-0.28124833600535964
4282,-0.3020392547598917
4283,-0.32032012896593154
4284,-0.3380147084894095
4285,-0.3551408229270276
4286,-0.3705968614203346
4287,-0.38408130935948587
4288,-0.3965786550109575
4289,-0.4086232374241938
4290,-0.41949852217930983
4291,-0.4294128371101576
4292,-0.4377830888745631
4293,-0.4454021068441319
4294,-0.451405907717797
4295,-0.4563825503774348
4296,-0.46146666268202235
4297,-0.4648408951770968
4298,-0.4673774536044266
4299,-0.4683442972220673
4300,-0.46878937085511724
4301,-0.4683648777466517
4302,-0.46714321997035174
4303,-0.46519459811135705
4304,-0.46244757149309085
4305,-0.45994588181867674
4306,-0.4562464507068134
4307,-0.4515662509637471
4308,-0.44673067435569386
4309,-0.44188163655299806
4310,-0.436807043525286
4311,-0.4305983357423015
4312,-0.4246576367217828
4313,-0.41830730696645496
4314,-0.41110443969770527
4315,-0.4040049289874642
4316,-0.3976689532925365
4317,-0.3901211653217617
4318,-0.382125393548216
4319,-0.374492433279187
4320,-0.3672125191439979
4321,-0.3584014403239532
4322,-0.3501722998002571
4323,-0.34154600461075546
4324,-0.3317596084113962
4325,-0.32335041908866125
4326,-0.3143422478243372
4327,-0.3049412400248444
4328,-0.2966327394656397
4329,-0.2874713260152629
4330,-0.2780908561023915
4331,-0.269529729594429
4332,-0.26059633097554785
4333,-0.2526448114039815
4334,-0.2450535223359998
4335,-0.23774438560611091
4336,-0.23025533073014662
4337,-0.22303920138032146
4338,-0.2156786252611032
4339,-0.20843098600670765
4340,-0.20233766303525966
4341,-0.19598136748081624
4342,-0.19028818584574955
4343,-0.18521605224062568
4344,-0.180054152990888
4345,-0.17536583962315325
4346,-0.17036711532183826
4347,-0.16570806158367432
4348,-0.1618834512634826
4349,-0.15806592660942867
4350,-0.15327488974027242
4351,-0.14971109880667643
4352,-0.14712862459808668
4353,-0.1432337037333651
4354,-0.14012937109781692
4355,-0.13721934985400663
4356,-0.13482943393355235
4357,-0.13254430791971375
4358,-0.13007218376880406
4359,-0.1278341357732748
4360,-0.12534610514086217
4361,-0.12267745613035981
4362,-0.1202659195652342
4363,-0.1177542256035259
4364,-0.11555330967103741
4365,-0.11425862682031371
4366,-0.112593114307934
4367,-0.1106005775777066
4368,-0.10819590201929641
4369,-0.10687795341294488
4370,-0.10532026039384186
4371,-0.1032841593811108
4372,-0.10184151837834328
4373,-0.10070894469522745
4374,-0.09959411996730962
4375,-0.09801719464559729
4376,-0.09721999361640896
4377,-0.09554335660193601
4378,-0.09321372930158779
4379,-0.0924737728226651
4380,-0.0907263843132096
4381,-0.08999416297620091
4382,-0.08982000572828269
4383,-0.08833671935959513
4384,-0.08741968452458854
4385,-0.08594265297747662
4386,-0.08475819913407354
4387,-0.08351533867201358
4388,-0.08224028242223624
4389,-0.08109430245244734
4390,-0.07980864988368992
4391,-0.07853080751880104
4392,-0.07766177026815443
4393,-0.07627073778543067
4394,-0.0753245459457707
4395,-0.07487551309027825
4396,-0.07358934853187486
4397,-0.07272051592182803
4398,-0.07128124164423298
4399,-0.07018792715939899
4400,-0.06993513440067949
4401,-0.068811351834081
4402,-0.0678211121089589
4403,-0.06750251573592575
4404,-0.06634034880906715
4405,-0.06541498114068175
4406,-0.0652042343343221
4407,-0.06385189513156414
4408,-0.06302364556758462
4409,-0.06287511242419914
4410,-0.061398740275061585
4411,-0.060428030032969815
4412,-0.060238686436736084
4413,-0.059998599249829775
4414,-0.058860012539617264
4415,-0.05823563343308102
4416,-0.05790242645863417
4417,-0.05772476814669467
4418,-0.05636628883247758
4419,-0.05545358500703931
4420,-0.05555538036362042
4421,-0.05527671707516157
4422,-0.054135499602919905
4423,-0.053221180566437355
4424,-0.052931399536948615
4425,-0.05301703140863907
4426,-0.05292904658462461
4427,-0.05177266043149116
4428,-0.05079235553266766
4429,-0.050802941630521424
4430,-0.050623142306355305
4431,-0.050511479292575955
4432,-0.04920582131847161
4433,-0.04822098500358301
4434,-0.04816439691313471
4435,-0.04790529023093871
4436,-0.048167356734007606
4437,-0.04785349550264539
4438,-0.04679776100856036
4439,-0.0458303021279565
4440,-0.045529321685397244
4441,-0.04552290525339967
4442,-0.044564669413570665
4443,-0.043527563666018364
4444,-0.04322929099413757
4445,-0.04298618386389528
4446,-0.0417082400029781
4447,-0.04095334464624579
4448,-0.040743255401349744
4449,-0.040577816873121834
4450,-0.03943601833438085
4451,-0.03857501837426022
4452,-0.038033958963322005
4453,-0.038285356381885495
4454,-0.0369116564516974
4455,-0.03600271226521712
4456,-0.0359542676054376
4457,-0.03602291161763296
4458,-0.036078752212915136
4459,-0.03470760269091444
4460,-0.03361012104717459
4461,-0.03312831626496547
4462,-0.03315423106286402
4463,-0.03213494927416785
4464,-0.030951245025611127
4465,-0.03108712877129055
4466,-0.0308210198111138
4467,-0.02968770286230229
4468,-0.02877065968753084
4469,-0.028559482171698732
4470,-0.02825291324566041
4471,-0.028596194462317884
4472,-0.027038317932691982
4473,-0.02617889735516925
4474,-0.026088611302496865
4475,-0.02580657439490449
4476,-0.024791038083024505
4477,-0.023839941705021798
4478,-0.02366422208677377
4479,-0.023562611375515616
4480,-0.023476802548051248
4481,-0.02227557328357183
4482,-0.021235008356780386
4483,-0.02121336271426869
4484,-0.02115556665068952
4485,-0.021115998590460962
4486,-0.019771886144631226
4487,-0.01882858229095768
4488,-0.01893514949349205
4489,-0.018720530441461988
4490,-0.018778415287557474
4491,-0.018785236775167673
4492,-0.01718271852949991
4493,-0.016475555157055323
4494,-0.016403699446664675
4495,-0.016379117232237433
4496,-0.01623438610691548
4497,-0.016098401933365303
4498,-0.014996055164538195
4499,-0.014261919537463011
4500,-0.014114669539159748
4501,-0.013869669957773657
4502,-0.013663437234322204
4503,-0.012523028945685357
4504,-0.011487101771089062
4505,-0.011471494978956285
4506,-0.011219120197903807
4507,-0.009962151177934944
4508,-0.008982876970597228
4509,-0.008879325991401616
4510,-0.009098192950843718
4511,-0.008971862311951823
4512,-0.007524897060960773
4513,-0.0065863501862039875
4514,-0.006661902757397063
4515,-0.006304589547955297
4516,-0.006395322854146115
4517,-0.0052628121263775755
4518,-0.004419801118642745
4519,-0.004260684838679853
4520,-0.004001722594207539
4521,-0.0036845869625590235
4522,-0.0025346243245508767
4523,-0.001721884939927663
4524,-0.001412875511631563
4525,-0.001505437500051868
4526,-0.001578053430046813
4527,-0.0015037231065290146
4528,-0.0002814199751406581
4529,0.0006994077458262995
4530,0.0009425813027799044
4531,0.001177830659535173
4532,0.002325036264047296
4533,0.003099851871199937
4534,0.0033806288283629708
4535,0.0034075798523076134
4536,0.0034697434157812826
4537,0.0046553467988956435
4538,0.005472386207049651
4539,0.005831713277266874
4540,0.0058546736301201135
4541,0.006992387364250212
4542,0.007932151078710748
4543,0.007919122727753296
4544,0.008192492987688689
4545,0.008165316564372766
4546,0.008364539094757779
4547,0.009583568332664482
4548,0.010551418317346252
4549,0.010534951170514933
4550,0.010651186742414411
4551,0.010845198550854612
4552,0.010658777494183196
4553,0.01183531553698468
4554,0.01277764492255746
4555,0.012909452408814826
4556,0.013134069325243206
4557,0.013119456801282452
4558,0.013223517082531406
4559,0.014402366070499105
4560,0.01548029349774319
4561,0.015534341476888631
4562,0.015691357360979534
4563,0.015670403821020588
4564,0.016969626284008214
4565,0.017914852916994236
4566,0.01772521130811592
4567,0.018029069114760706
4568,0.01939498214594476
4569,0.020288673058133776
4570,0.0206051897969383
4571,0.020496924661385734
4572,0.021663727032190303
4573,0.02269029064773398
4574,0.022841846006086318
4575,0.0230796330831679
4576,0.024249109469592623
4577,0.025357942005557205
4578,0.025572147764519684
4579,0.02530438563633162
4580,0.02632148497507637
4581,0.027530537902498747
4582,0.02770604210334509
4583,0.027569382512788856
4584,0.029280372802086153
4585,0.03011706952617364
4586,0.03022829058283702
4587,0.030307758507286738
4588,0.031421827448175364
4589,0.03220083937787997
4590,0.032686876774163716
4591,0.0326079913568125
4592,0.03263594791205468
4593,0.033874384170895305
4594,0.034828316509734766
4595,0.035042448659213146
4596,0.03511072086129198
4597,0.03636324725072816
4598,0.0372308055934896
4599,0.037460497061569765
4600,0.03768441007723063
4601,0.03899505744890211
4602,0.03975183239581161
4603,0.03968917117247173
4604,0.03966320902221589
4605,0.04108356334286728
4606,0.04181914622482987
4607,0.0420394537086977
4608,0.04196923912507057
4609,0.04341763186930074
4610,0.04439845595871369
4611,0.044585300071704956
4612,0.044890969393385646
4613,0.04589527395018896
4614,0.046652601388312905
4615,0.04711919392360767
4616,0.046830867085707634
4617,0.04720426961524508
4618,0.048370490624049536
4619,0.049290845654071255
4620,0.049355296610853354
4621,0.049621811277956326
4622,0.050580188608550174
4623,0.051561249175329935
4624,0.051799232416629974
4625,0.05319468361982629
4626,0.05396401060846414
4627,0.05456873822331862
4628,0.054254747964712274
4629,0.05535461752153164
4630,0.05660342484592496
4631,0.056832833631451286
4632,0.05813748994371997
4633,0.05900078388562235
4634,0.05930564185117349
4635,0.060644737338507365
4636,0.061544611463149365
4637,0.06183699948636492
4638,0.06286566666354565
4639,0.06394043857677563
4640,0.06422913114296382
4641,0.06426133602636142
4642,0.06528112718617256
4643,0.06620156202530122
4644,0.06645571337928316
4645,0.06783249465164994
4646,0.06908228034762962
4647,0.06889437151861603
4648,0.07028129043866335
4649,0.07124183062219747
4650,0.07174124515722037
4651,0.07278008414736892
4652,0.07392000298489504
4653,0.07399837596373537
4654,0.07412842677250255
