,ECG
0,-0.389404296875
1,-0.381927490234375
2,-0.374755859375
3,-0.367431640625
4,-0.35888671875
5,-0.350494384765625
6,-0.342864990234375
7,-0.334014892578125
8,-0.326080322265625
9,-0.31707763671875
10,-0.30731201171875
11,-0.299072265625
12,-0.29022216796875
13,-0.281829833984375
14,-0.274200439453125
15,-0.265655517578125
16,-0.257415771484375
17,-0.250091552734375
18,-0.242462158203125
19,-0.235443115234375
20,-0.228118896484375
21,-0.22064208984375
22,-0.213470458984375
23,-0.206146240234375
24,-0.19989013671875
25,-0.193634033203125
26,-0.187530517578125
27,-0.1824951171875
28,-0.177764892578125
29,-0.172882080078125
30,-0.1678466796875
31,-0.163421630859375
32,-0.159759521484375
33,-0.15533447265625
34,-0.15228271484375
35,-0.148162841796875
36,-0.144805908203125
37,-0.14068603515625
38,-0.1373291015625
39,-0.1348876953125
40,-0.1324462890625
41,-0.130157470703125
42,-0.1275634765625
43,-0.125274658203125
44,-0.1226806640625
45,-0.120697021484375
46,-0.117950439453125
47,-0.115509033203125
48,-0.113067626953125
49,-0.111541748046875
50,-0.110626220703125
51,-0.1080322265625
52,-0.1068115234375
53,-0.10528564453125
54,-0.103607177734375
55,-0.102081298828125
56,-0.100555419921875
57,-0.0994873046875
58,-0.09796142578125
59,-0.095977783203125
60,-0.0946044921875
61,-0.0933837890625
62,-0.0921630859375
63,-0.0909423828125
64,-0.089874267578125
65,-0.088348388671875
66,-0.087432861328125
67,-0.0872802734375
68,-0.0860595703125
69,-0.0848388671875
70,-0.083465576171875
71,-0.08270263671875
72,-0.081024169921875
73,-0.080108642578125
74,-0.07843017578125
75,-0.07781982421875
76,-0.0762939453125
77,-0.075225830078125
78,-0.07354736328125
79,-0.072784423828125
80,-0.0726318359375
81,-0.071258544921875
82,-0.07049560546875
83,-0.06866455078125
84,-0.067291259765625
85,-0.06622314453125
86,-0.06561279296875
87,-0.0653076171875
88,-0.06378173828125
89,-0.0628662109375
90,-0.0616455078125
91,-0.0604248046875
92,-0.060272216796875
93,-0.05859375
94,-0.058135986328125
95,-0.058441162109375
96,-0.05645751953125
97,-0.055694580078125
98,-0.053863525390625
99,-0.053253173828125
100,-0.05157470703125
101,-0.051116943359375
102,-0.0506591796875
103,-0.04913330078125
104,-0.0482177734375
105,-0.0469970703125
106,-0.045928955078125
107,-0.0457763671875
108,-0.044097900390625
109,-0.043487548828125
110,-0.043182373046875
111,-0.04180908203125
112,-0.041046142578125
113,-0.041046142578125
114,-0.040740966796875
115,-0.0408935546875
116,-0.039520263671875
117,-0.038299560546875
118,-0.0384521484375
119,-0.03814697265625
120,-0.03814697265625
121,-0.037078857421875
122,-0.03631591796875
123,-0.036163330078125
124,-0.035552978515625
125,-0.03570556640625
126,-0.03448486328125
127,-0.0335693359375
128,-0.033111572265625
129,-0.033416748046875
130,-0.03173828125
131,-0.03143310546875
132,-0.0311279296875
133,-0.030670166015625
134,-0.029754638671875
135,-0.0286865234375
136,-0.028533935546875
137,-0.027008056640625
138,-0.026397705078125
139,-0.0262451171875
140,-0.025787353515625
141,-0.025787353515625
142,-0.024871826171875
143,-0.023956298828125
144,-0.023956298828125
145,-0.023651123046875
146,-0.02227783203125
147,-0.0213623046875
148,-0.021209716796875
149,-0.021209716796875
150,-0.0201416015625
151,-0.019073486328125
152,-0.01861572265625
153,-0.018463134765625
154,-0.01861572265625
155,-0.017547607421875
156,-0.016632080078125
157,-0.016326904296875
158,-0.01617431640625
159,-0.01617431640625
160,-0.01617431640625
161,-0.01617431640625
162,-0.014801025390625
163,-0.0140380859375
164,-0.013885498046875
165,-0.0140380859375
166,-0.013580322265625
167,-0.01251220703125
168,-0.0115966796875
169,-0.011444091796875
170,-0.01129150390625
171,-0.0115966796875
172,-0.01007080078125
173,-0.009002685546875
174,-0.00885009765625
175,-0.009002685546875
176,-0.00885009765625
177,-0.009002685546875
178,-0.00885009765625
179,-0.00732421875
180,-0.006866455078125
181,-0.0067138671875
182,-0.006561279296875
183,-0.00640869140625
184,-0.006256103515625
185,-0.0067138671875
186,-0.006256103515625
187,-0.006561279296875
188,-0.00640869140625
189,-0.006561279296875
190,-0.006561279296875
191,-0.006561279296875
192,-0.005340576171875
193,-0.004425048828125
194,-0.004425048828125
195,-0.003662109375
196,-0.004119873046875
197,-0.00396728515625
198,-0.00244140625
199,-0.00152587890625
200,-0.001678466796875
201,-0.001678466796875
202,-0.00152587890625
203,-0.000152587890625
204,0.0006103515625
205,0.00091552734375
206,0.001068115234375
207,0.001068115234375
208,0.00213623046875
209,0.00335693359375
210,0.00335693359375
211,0.0030517578125
212,0.004425048828125
213,0.0054931640625
214,0.005645751953125
215,0.0054931640625
216,0.00579833984375
217,0.0054931640625
218,0.00701904296875
219,0.0079345703125
220,0.00823974609375
221,0.007781982421875
222,0.00823974609375
223,0.00823974609375
224,0.008087158203125
225,0.0079345703125
226,0.008087158203125
227,0.00823974609375
228,0.00823974609375
229,0.0079345703125
230,0.00823974609375
231,0.008087158203125
232,0.00823974609375
233,0.008087158203125
234,0.00823974609375
235,0.008392333984375
236,0.008087158203125
237,0.0079345703125
238,0.008392333984375
239,0.009613037109375
240,0.0103759765625
241,0.01068115234375
242,0.010833740234375
243,0.010833740234375
244,0.010833740234375
245,0.0115966796875
246,0.01312255859375
247,0.01312255859375
248,0.012969970703125
249,0.01434326171875
250,0.015411376953125
251,0.01556396484375
252,0.015411376953125
253,0.016021728515625
254,0.016937255859375
255,0.018157958984375
256,0.01800537109375
257,0.017547607421875
258,0.01953125
259,0.02044677734375
260,0.020599365234375
261,0.020294189453125
262,0.0201416015625
263,0.020294189453125
264,0.022125244140625
265,0.022735595703125
266,0.022735595703125
267,0.023040771484375
268,0.02288818359375
269,0.023345947265625
270,0.02288818359375
271,0.0244140625
272,0.0250244140625
273,0.025482177734375
274,0.025634765625
275,0.02532958984375
276,0.02655029296875
277,0.027618408203125
278,0.027923583984375
279,0.02777099609375
280,0.027618408203125
281,0.02899169921875
282,0.030059814453125
283,0.030059814453125
284,0.030364990234375
285,0.03143310546875
286,0.03265380859375
287,0.032501220703125
288,0.032501220703125
289,0.03265380859375
290,0.0341796875
291,0.035247802734375
292,0.03509521484375
293,0.034942626953125
294,0.0347900390625
295,0.0347900390625
296,0.03509521484375
297,0.03509521484375
298,0.036163330078125
299,0.0372314453125
300,0.037689208984375
301,0.037384033203125
302,0.03753662109375
303,0.037841796875
304,0.037689208984375
305,0.03753662109375
306,0.037994384765625
307,0.037689208984375
308,0.03753662109375
309,0.0390625
310,0.039825439453125
311,0.03936767578125
312,0.0396728515625
313,0.039825439453125
314,0.04119873046875
315,0.041961669921875
316,0.04241943359375
317,0.04241943359375
318,0.043182373046875
319,0.044403076171875
320,0.044708251953125
321,0.044403076171875
322,0.044708251953125
323,0.0457763671875
324,0.046539306640625
325,0.046844482421875
326,0.04730224609375
327,0.04852294921875
328,0.049285888671875
329,0.049285888671875
330,0.049591064453125
331,0.05096435546875
332,0.051727294921875
333,0.052032470703125
334,0.053558349609375
335,0.054168701171875
336,0.054168701171875
337,0.054168701171875
338,0.05401611328125
339,0.055389404296875
340,0.0567626953125
341,0.056915283203125
342,0.058135986328125
343,0.058746337890625
344,0.059051513671875
345,0.06072998046875
346,0.0616455078125
347,0.063018798828125
348,0.06378173828125
349,0.064239501953125
350,0.0653076171875
351,0.066070556640625
352,0.06805419921875
353,0.0689697265625
354,0.07080078125
355,0.0714111328125
356,0.07232666015625
357,0.073699951171875
358,0.075225830078125
359,0.07598876953125
360,0.07781982421875
361,0.078582763671875
362,0.08026123046875
363,0.0811767578125
364,0.082550048828125
365,0.0836181640625
366,0.0848388671875
367,0.086212158203125
368,0.0860595703125
369,0.08758544921875
370,0.0885009765625
371,0.08819580078125
372,0.090179443359375
373,0.0909423828125
374,0.0909423828125
375,0.09246826171875
376,0.0933837890625
377,0.09368896484375
378,0.094757080078125
379,0.09552001953125
380,0.09552001953125
381,0.09735107421875
382,0.09796142578125
383,0.098419189453125
384,0.10009765625
385,0.100555419921875
386,0.10101318359375
387,0.1025390625
388,0.102996826171875
389,0.103302001953125
390,0.104217529296875
391,0.105438232421875
392,0.1055908203125
393,0.1068115234375
394,0.10772705078125
395,0.1080322265625
396,0.109405517578125
397,0.110321044921875
398,0.1104736328125
399,0.112152099609375
400,0.112762451171875
401,0.1129150390625
402,0.114593505859375
403,0.1153564453125
404,0.115509033203125
405,0.1165771484375
406,0.117645263671875
407,0.117950439453125
408,0.11932373046875
409,0.120391845703125
410,0.1202392578125
411,0.120086669921875
412,0.1220703125
413,0.122833251953125
414,0.12298583984375
415,0.122833251953125
416,0.12420654296875
417,0.1251220703125
418,0.124969482421875
419,0.124969482421875
420,0.126495361328125
421,0.127410888671875
422,0.1275634765625
423,0.127716064453125
424,0.12786865234375
425,0.12908935546875
426,0.129852294921875
427,0.1300048828125
428,0.129852294921875
429,0.129547119140625
430,0.130462646484375
431,0.130157470703125
432,0.13031005859375
433,0.1300048828125
434,0.130157470703125
435,0.131378173828125
436,0.132598876953125
437,0.132598876953125
438,0.132293701171875
439,0.133056640625
440,0.132598876953125
441,0.133819580078125
442,0.13458251953125
443,0.1348876953125
444,0.135040283203125
445,0.135345458984375
446,0.135040283203125
447,0.13519287109375
448,0.13519287109375
449,0.135040283203125
450,0.135040283203125
451,0.1348876953125
452,0.1348876953125
453,0.135345458984375
454,0.1348876953125
455,0.135040283203125
456,0.135040283203125
457,0.135040283203125
458,0.1348876953125
459,0.1348876953125
460,0.134735107421875
461,0.13519287109375
462,0.13458251953125
463,0.133514404296875
464,0.13275146484375
465,0.132598876953125
466,0.1324462890625
467,0.132293701171875
468,0.1324462890625
469,0.13092041015625
470,0.13031005859375
471,0.130157470703125
472,0.1287841796875
473,0.127716064453125
474,0.1275634765625
475,0.1263427734375
476,0.12542724609375
477,0.124053955078125
478,0.122833251953125
479,0.121612548828125
480,0.12054443359375
481,0.1190185546875
482,0.118255615234375
483,0.11688232421875
484,0.114288330078125
485,0.111541748046875
486,0.10955810546875
487,0.108642578125
488,0.106658935546875
489,0.1043701171875
490,0.102081298828125
491,0.099639892578125
492,0.09735107421875
493,0.094757080078125
494,0.0921630859375
495,0.0897216796875
496,0.087432861328125
497,0.0848388671875
498,0.081024169921875
499,0.077972412109375
500,0.074920654296875
501,0.072479248046875
502,0.070037841796875
503,0.0677490234375
504,0.0653076171875
505,0.061492919921875
506,0.05828857421875
507,0.055694580078125
508,0.0531005859375
509,0.050811767578125
510,0.0469970703125
511,0.0439453125
512,0.041046142578125
513,0.038604736328125
514,0.035247802734375
515,0.031890869140625
516,0.028839111328125
517,0.026092529296875
518,0.0225830078125
519,0.019378662109375
520,0.01708984375
521,0.012969970703125
522,0.009918212890625
523,0.006866455078125
524,0.00335693359375
525,-0.000152587890625
526,-0.0042724609375
527,-0.007171630859375
528,-0.009613037109375
529,-0.013885498046875
530,-0.01739501953125
531,-0.019989013671875
532,-0.0238037109375
533,-0.02685546875
534,-0.030975341796875
535,-0.03448486328125
536,-0.03692626953125
537,-0.040740966796875
538,-0.044097900390625
539,-0.046844482421875
540,-0.049285888671875
541,-0.053253173828125
542,-0.05645751953125
543,-0.059051513671875
544,-0.0628662109375
545,-0.066070556640625
546,-0.06866455078125
547,-0.071563720703125
548,-0.07537841796875
549,-0.07843017578125
550,-0.081024169921875
551,-0.083770751953125
552,-0.08697509765625
553,-0.090484619140625
554,-0.093536376953125
555,-0.09552001953125
556,-0.0982666015625
557,-0.1007080078125
558,-0.104827880859375
559,-0.107879638671875
560,-0.1104736328125
561,-0.11138916015625
562,-0.113067626953125
563,-0.115509033203125
564,-0.11749267578125
565,-0.11993408203125
566,-0.1226806640625
567,-0.12481689453125
568,-0.12603759765625
569,-0.1275634765625
570,-0.130157470703125
571,-0.1324462890625
572,-0.133514404296875
573,-0.135498046875
574,-0.1373291015625
575,-0.139923095703125
576,-0.14068603515625
577,-0.142364501953125
578,-0.1434326171875
579,-0.14495849609375
580,-0.1470947265625
581,-0.148162841796875
582,-0.149688720703125
583,-0.1507568359375
584,-0.152130126953125
585,-0.1531982421875
586,-0.154571533203125
587,-0.155487060546875
588,-0.157012939453125
589,-0.157928466796875
590,-0.15960693359375
591,-0.1605224609375
592,-0.16204833984375
593,-0.16265869140625
594,-0.163421630859375
595,-0.164642333984375
596,-0.16510009765625
597,-0.165557861328125
598,-0.167083740234375
599,-0.16754150390625
600,-0.1678466796875
601,-0.169219970703125
602,-0.170135498046875
603,-0.1702880859375
604,-0.1702880859375
605,-0.17181396484375
606,-0.172576904296875
607,-0.17303466796875
608,-0.172576904296875
609,-0.17303466796875
610,-0.172882080078125
611,-0.172882080078125
612,-0.172882080078125
613,-0.17425537109375
614,-0.17486572265625
615,-0.175323486328125
616,-0.175323486328125
617,-0.175628662109375
618,-0.17547607421875
619,-0.175323486328125
620,-0.175323486328125
621,-0.174713134765625
622,-0.1739501953125
623,-0.172882080078125
624,-0.17303466796875
625,-0.17242431640625
626,-0.1727294921875
627,-0.171356201171875
628,-0.1702880859375
629,-0.1702880859375
630,-0.169219970703125
631,-0.167999267578125
632,-0.167999267578125
633,-0.1678466796875
634,-0.166778564453125
635,-0.165863037109375
636,-0.1654052734375
637,-0.1654052734375
638,-0.165252685546875
639,-0.164337158203125
640,-0.16326904296875
641,-0.163116455078125
642,-0.1629638671875
643,-0.162811279296875
644,-0.1629638671875
645,-0.16326904296875
646,-0.163116455078125
647,-0.16143798828125
648,-0.1605224609375
649,-0.1605224609375
650,-0.160675048828125
651,-0.160675048828125
652,-0.1593017578125
653,-0.157928466796875
654,-0.15777587890625
655,-0.1580810546875
656,-0.15838623046875
657,-0.15716552734375
658,-0.15594482421875
659,-0.1556396484375
660,-0.1556396484375
661,-0.154571533203125
662,-0.15350341796875
663,-0.153350830078125
664,-0.15350341796875
665,-0.1531982421875
666,-0.151519775390625
667,-0.1513671875
668,-0.1507568359375
669,-0.15045166015625
670,-0.1495361328125
671,-0.14892578125
672,-0.14892578125
673,-0.148468017578125
674,-0.1470947265625
675,-0.146026611328125
676,-0.1458740234375
677,-0.145721435546875
678,-0.144500732421875
679,-0.1434326171875
680,-0.1434326171875
681,-0.1434326171875
682,-0.142059326171875
683,-0.141143798828125
684,-0.1409912109375
685,-0.1397705078125
686,-0.1385498046875
687,-0.13885498046875
688,-0.136871337890625
689,-0.136260986328125
690,-0.1348876953125
691,-0.13397216796875
692,-0.133514404296875
693,-0.1324462890625
694,-0.131378173828125
695,-0.129852294921875
696,-0.12939453125
697,-0.12786865234375
698,-0.126800537109375
699,-0.125274658203125
700,-0.123748779296875
701,-0.124053955078125
702,-0.122528076171875
703,-0.121917724609375
704,-0.1214599609375
705,-0.1202392578125
706,-0.11932373046875
707,-0.118865966796875
708,-0.11871337890625
709,-0.117645263671875
710,-0.116424560546875
711,-0.117034912109375
712,-0.115203857421875
713,-0.114288330078125
714,-0.113983154296875
715,-0.1129150390625
716,-0.11199951171875
717,-0.1116943359375
718,-0.1104736328125
719,-0.10955810546875
720,-0.1092529296875
721,-0.1092529296875
722,-0.107879638671875
723,-0.1068115234375
724,-0.1068115234375
725,-0.105743408203125
726,-0.10467529296875
727,-0.104217529296875
728,-0.10284423828125
729,-0.102081298828125
730,-0.102386474609375
731,-0.100555419921875
732,-0.099639892578125
733,-0.099334716796875
734,-0.09796142578125
735,-0.097198486328125
736,-0.0970458984375
737,-0.0970458984375
738,-0.095672607421875
739,-0.094757080078125
740,-0.09490966796875
741,-0.094451904296875
742,-0.094451904296875
743,-0.0933837890625
744,-0.092315673828125
745,-0.0921630859375
746,-0.092315673828125
747,-0.0921630859375
748,-0.0921630859375
749,-0.09033203125
750,-0.0897216796875
751,-0.089874267578125
752,-0.089874267578125
753,-0.087890625
754,-0.0872802734375
755,-0.087127685546875
756,-0.0860595703125
757,-0.08514404296875
758,-0.08453369140625
759,-0.08331298828125
760,-0.082244873046875
761,-0.0823974609375
762,-0.082244873046875
763,-0.081329345703125
764,-0.0799560546875
765,-0.079803466796875
766,-0.0799560546875
767,-0.079803466796875
768,-0.078582763671875
769,-0.077667236328125
770,-0.077667236328125
771,-0.0775146484375
772,-0.076141357421875
773,-0.075225830078125
774,-0.074920654296875
775,-0.074920654296875
776,-0.074615478515625
777,-0.07354736328125
778,-0.072784423828125
779,-0.072479248046875
780,-0.0726318359375
781,-0.072784423828125
782,-0.0726318359375
783,-0.072479248046875
784,-0.070953369140625
785,-0.070648193359375
786,-0.070037841796875
787,-0.06988525390625
788,-0.0701904296875
789,-0.070343017578125
790,-0.06866455078125
791,-0.067596435546875
792,-0.067901611328125
793,-0.067596435546875
794,-0.06744384765625
795,-0.06622314453125
796,-0.065155029296875
797,-0.065155029296875
798,-0.0653076171875
799,-0.065155029296875
800,-0.0634765625
801,-0.0628662109375
802,-0.062713623046875
803,-0.0628662109375
804,-0.061187744140625
805,-0.060577392578125
806,-0.060577392578125
807,-0.060272216796875
808,-0.05859375
809,-0.05828857421875
810,-0.057525634765625
811,-0.056304931640625
812,-0.05523681640625
813,-0.055389404296875
814,-0.0555419921875
815,-0.055694580078125
816,-0.055389404296875
817,-0.0555419921875
818,-0.054168701171875
819,-0.05340576171875
820,-0.052947998046875
821,-0.052947998046875
822,-0.052947998046875
823,-0.052947998046875
824,-0.0531005859375
825,-0.05279541015625
826,-0.052642822265625
827,-0.052947998046875
828,-0.053253173828125
829,-0.052642822265625
830,-0.052947998046875
831,-0.0531005859375
832,-0.05157470703125
833,-0.0506591796875
834,-0.050506591796875
835,-0.050506591796875
836,-0.0506591796875
837,-0.0506591796875
838,-0.050506591796875
839,-0.0506591796875
840,-0.050506591796875
841,-0.050506591796875
842,-0.048828125
843,-0.048370361328125
844,-0.0482177734375
845,-0.048370361328125
846,-0.0482177734375
847,-0.0482177734375
848,-0.048065185546875
849,-0.047149658203125
850,-0.0457763671875
851,-0.04547119140625
852,-0.045623779296875
853,-0.04547119140625
854,-0.04547119140625
855,-0.044403076171875
856,-0.043487548828125
857,-0.043182373046875
858,-0.043182373046875
859,-0.0433349609375
860,-0.04180908203125
861,-0.041046142578125
862,-0.0408935546875
863,-0.040740966796875
864,-0.039825439453125
865,-0.038604736328125
866,-0.037841796875
867,-0.038299560546875
868,-0.038299560546875
869,-0.036773681640625
870,-0.03631591796875
871,-0.0360107421875
872,-0.035858154296875
873,-0.035858154296875
874,-0.035858154296875
875,-0.03570556640625
876,-0.0360107421875
877,-0.0360107421875
878,-0.035552978515625
879,-0.035858154296875
880,-0.034332275390625
881,-0.033416748046875
882,-0.033416748046875
883,-0.033721923828125
884,-0.033416748046875
885,-0.033416748046875
886,-0.033721923828125
887,-0.03326416015625
888,-0.03326416015625
889,-0.033416748046875
890,-0.033416748046875
891,-0.03204345703125
892,-0.03143310546875
893,-0.03082275390625
894,-0.03082275390625
895,-0.03082275390625
896,-0.030670166015625
897,-0.0311279296875
898,-0.0311279296875
899,-0.030975341796875
900,-0.030975341796875
901,-0.030975341796875
902,-0.0311279296875
903,-0.031280517578125
904,-0.030670166015625
905,-0.030517578125
906,-0.0311279296875
907,-0.029449462890625
908,-0.028533935546875
909,-0.028533935546875
910,-0.0286865234375
911,-0.02838134765625
912,-0.028533935546875
913,-0.0286865234375
914,-0.028533935546875
915,-0.02838134765625
916,-0.028533935546875
917,-0.02838134765625
918,-0.027008056640625
919,-0.0262451171875
920,-0.02593994140625
921,-0.026397705078125
922,-0.026092529296875
923,-0.0262451171875
924,-0.02471923828125
925,-0.023956298828125
926,-0.023651123046875
927,-0.0238037109375
928,-0.0238037109375
929,-0.02197265625
930,-0.021209716796875
931,-0.021514892578125
932,-0.021209716796875
933,-0.020904541015625
934,-0.021514892578125
935,-0.019989013671875
936,-0.018768310546875
937,-0.01861572265625
938,-0.0189208984375
939,-0.0189208984375
940,-0.019073486328125
941,-0.018768310546875
942,-0.01861572265625
943,-0.01861572265625
944,-0.018768310546875
945,-0.0189208984375
946,-0.0189208984375
947,-0.018768310546875
948,-0.019073486328125
949,-0.018768310546875
950,-0.019073486328125
951,-0.018768310546875
952,-0.0189208984375
953,-0.018768310546875
954,-0.018310546875
955,-0.0189208984375
956,-0.0189208984375
957,-0.018768310546875
958,-0.0189208984375
959,-0.018768310546875
960,-0.01861572265625
961,-0.018463134765625
962,-0.01861572265625
963,-0.01861572265625
964,-0.01861572265625
965,-0.0189208984375
966,-0.01708984375
967,-0.01678466796875
968,-0.016326904296875
969,-0.0164794921875
970,-0.01617431640625
971,-0.0164794921875
972,-0.016021728515625
973,-0.016326904296875
974,-0.016326904296875
975,-0.0164794921875
976,-0.01617431640625
977,-0.016326904296875
978,-0.016326904296875
979,-0.016021728515625
980,-0.0146484375
981,-0.0140380859375
982,-0.013885498046875
983,-0.013580322265625
984,-0.01373291015625
985,-0.012359619140625
986,-0.011749267578125
987,-0.011444091796875
988,-0.0115966796875
989,-0.011138916015625
990,-0.01129150390625
991,-0.01129150390625
992,-0.01007080078125
993,-0.009002685546875
994,-0.009307861328125
995,-0.00885009765625
996,-0.009002685546875
997,-0.009002685546875
998,-0.01007080078125
999,-0.011138916015625
1000,-0.01129150390625
1001,-0.011444091796875
1002,-0.01129150390625
1003,-0.011444091796875
1004,-0.01129150390625
1005,-0.011444091796875
1006,-0.011138916015625
1007,-0.011444091796875
1008,-0.01129150390625
1009,-0.011444091796875
1010,-0.0115966796875
1011,-0.011138916015625
1012,-0.011444091796875
1013,-0.011138916015625
1014,-0.011138916015625
1015,-0.01129150390625
1016,-0.011444091796875
1017,-0.0115966796875
1018,-0.011138916015625
1019,-0.01129150390625
1020,-0.01129150390625
1021,-0.0115966796875
1022,-0.011749267578125
1023,-0.011749267578125
1024,-0.0115966796875
1025,-0.01129150390625
1026,-0.01129150390625
1027,-0.01129150390625
1028,-0.0115966796875
1029,-0.011444091796875
1030,-0.0115966796875
1031,-0.01129150390625
1032,-0.011444091796875
1033,-0.01129150390625
1034,-0.010986328125
1035,-0.01129150390625
1036,-0.011138916015625
1037,-0.011444091796875
1038,-0.01129150390625
1039,-0.011138916015625
1040,-0.01129150390625
1041,-0.01129150390625
1042,-0.011138916015625
1043,-0.01129150390625
1044,-0.011444091796875
1045,-0.011444091796875
1046,-0.010223388671875
1047,-0.0091552734375
1048,-0.008697509765625
1049,-0.00885009765625
1050,-0.00885009765625
1051,-0.009002685546875
1052,-0.00885009765625
1053,-0.00885009765625
1054,-0.009002685546875
1055,-0.009002685546875
1056,-0.008697509765625
1057,-0.009307861328125
1058,-0.009307861328125
1059,-0.0091552734375
1060,-0.009002685546875
1061,-0.00885009765625
1062,-0.009002685546875
1063,-0.0091552734375
1064,-0.009307861328125
1065,-0.009002685546875
1066,-0.010223388671875
1067,-0.011138916015625
1068,-0.0115966796875
1069,-0.011444091796875
1070,-0.011138916015625
1071,-0.011444091796875
1072,-0.01129150390625
1073,-0.0115966796875
1074,-0.01129150390625
1075,-0.011444091796875
1076,-0.011444091796875
1077,-0.0115966796875
1078,-0.011444091796875
1079,-0.0115966796875
1080,-0.01129150390625
1081,-0.011444091796875
1082,-0.01129150390625
1083,-0.011444091796875
1084,-0.01129150390625
1085,-0.01129150390625
1086,-0.011444091796875
1087,-0.0115966796875
1088,-0.0115966796875
1089,-0.011138916015625
1090,-0.0115966796875
1091,-0.011749267578125
1092,-0.011444091796875
1093,-0.01129150390625
1094,-0.01129150390625
1095,-0.01129150390625
1096,-0.011444091796875
1097,-0.01129150390625
1098,-0.0115966796875
1099,-0.011444091796875
1100,-0.0115966796875
1101,-0.0115966796875
1102,-0.011444091796875
1103,-0.0115966796875
1104,-0.0115966796875
1105,-0.01190185546875
1106,-0.011444091796875
1107,-0.0115966796875
1108,-0.011444091796875
1109,-0.011444091796875
1110,-0.01129150390625
1111,-0.009765625
1112,-0.009002685546875
1113,-0.0091552734375
1114,-0.009307861328125
1115,-0.009002685546875
1116,-0.009002685546875
1117,-0.009307861328125
1118,-0.009002685546875
1119,-0.00885009765625
1120,-0.0091552734375
1121,-0.009002685546875
1122,-0.009002685546875
1123,-0.0079345703125
1124,-0.006866455078125
1125,-0.00640869140625
1126,-0.006866455078125
1127,-0.006256103515625
1128,-0.006561279296875
1129,-0.00640869140625
1130,-0.00640869140625
1131,-0.0067138671875
1132,-0.006256103515625
1133,-0.00640869140625
1134,-0.006256103515625
1135,-0.006866455078125
1136,-0.00640869140625
1137,-0.006561279296875
1138,-0.006561279296875
1139,-0.006561279296875
1140,-0.006561279296875
1141,-0.00640869140625
1142,-0.0067138671875
1143,-0.0067138671875
1144,-0.00640869140625
1145,-0.006561279296875
1146,-0.006256103515625
1147,-0.0067138671875
1148,-0.006561279296875
1149,-0.006561279296875
1150,-0.00518798828125
1151,-0.0042724609375
1152,-0.0042724609375
1153,-0.00396728515625
1154,-0.00396728515625
1155,-0.00396728515625
1156,-0.00396728515625
1157,-0.003814697265625
1158,-0.003662109375
1159,-0.004119873046875
1160,-0.004119873046875
1161,-0.00396728515625
1162,-0.003814697265625
1163,-0.00396728515625
1164,-0.004119873046875
1165,-0.00396728515625
1166,-0.00396728515625
1167,-0.004119873046875
1168,-0.003814697265625
1169,-0.00396728515625
1170,-0.00396728515625
1171,-0.0042724609375
1172,-0.00396728515625
1173,-0.004119873046875
1174,-0.00396728515625
1175,-0.004119873046875
1176,-0.004119873046875
1177,-0.0042724609375
1178,-0.004119873046875
1179,-0.00396728515625
1180,-0.00396728515625
1181,-0.00396728515625
1182,-0.004119873046875
1183,-0.003814697265625
1184,-0.0042724609375
1185,-0.003814697265625
1186,-0.004119873046875
1187,-0.0042724609375
1188,-0.00396728515625
1189,-0.00396728515625
1190,-0.004119873046875
1191,-0.003662109375
1192,-0.00274658203125
1193,-0.0018310546875
1194,-0.001678466796875
1195,-0.001678466796875
1196,-0.001678466796875
1197,-0.00152587890625
1198,-0.00152587890625
1199,-0.001678466796875
1200,-0.00152587890625
1201,-0.0018310546875
1202,-0.000152587890625
1203,0.000457763671875
1204,0.000762939453125
1205,0.00091552734375
1206,0.001068115234375
1207,0.000762939453125
1208,0.000762939453125
1209,0.000762939453125
1210,0.00091552734375
1211,0.00091552734375
1212,0.000762939453125
1213,0.00091552734375
1214,0.000762939453125
1215,0.000762939453125
1216,0.000762939453125
1217,0.000762939453125
1218,0.001068115234375
1219,0.000762939453125
1220,0.00091552734375
1221,0.00091552734375
1222,0.0006103515625
1223,0.00091552734375
1224,0.00091552734375
1225,0.00091552734375
1226,0.0006103515625
1227,0.0006103515625
1228,0.0006103515625
1229,0.000762939453125
1230,0.00091552734375
1231,0.000762939453125
1232,0.001068115234375
1233,0.000762939453125
1234,0.00091552734375
1235,0.000762939453125
1236,0.000457763671875
1237,0.001068115234375
1238,0.00091552734375
1239,0.00091552734375
1240,0.000762939453125
1241,-0.00030517578125
1242,-0.001068115234375
1243,-0.00152587890625
1244,-0.001373291015625
1245,-0.001678466796875
1246,-0.00152587890625
1247,-0.00152587890625
1248,-0.001678466796875
1249,-0.00152587890625
1250,-0.00152587890625
1251,-0.00152587890625
1252,-0.0018310546875
1253,-0.002899169921875
1254,-0.003814697265625
1255,-0.00396728515625
1256,-0.004119873046875
1257,-0.004119873046875
1258,-0.004119873046875
1259,-0.004119873046875
1260,-0.00396728515625
1261,-0.00396728515625
1262,-0.00396728515625
1263,-0.00396728515625
1264,-0.0042724609375
1265,-0.004119873046875
1266,-0.002288818359375
1267,-0.001983642578125
1268,-0.00152587890625
1269,-0.0018310546875
1270,-0.00152587890625
1271,-0.001373291015625
1272,-0.0018310546875
1273,-0.0018310546875
1274,-0.00152587890625
1275,-0.00152587890625
1276,-0.001220703125
1277,-0.001678466796875
1278,-0.00152587890625
1279,-0.001678466796875
1280,-0.00152587890625
1281,-0.00152587890625
1282,-0.001373291015625
1283,-0.00152587890625
1284,-0.001678466796875
1285,-0.001678466796875
1286,-0.001678466796875
1287,-0.00152587890625
1288,-0.001678466796875
1289,-0.00152587890625
1290,-0.001373291015625
1291,-0.001678466796875
1292,-0.00152587890625
1293,-0.001678466796875
1294,-0.001678466796875
1295,-0.001678466796875
1296,-0.00152587890625
1297,-0.00152587890625
1298,-0.001983642578125
1299,-0.00152587890625
1300,-0.001220703125
1301,-0.001983642578125
1302,-0.001373291015625
1303,-0.001678466796875
1304,-0.00030517578125
1305,0.0006103515625
1306,0.001068115234375
1307,0.00091552734375
1308,0.001068115234375
1309,0.00091552734375
1310,0.0018310546875
1311,0.00335693359375
1312,0.003204345703125
1313,0.003204345703125
1314,0.003204345703125
1315,0.003204345703125
1316,0.00335693359375
1317,0.003204345703125
1318,0.00335693359375
1319,0.003204345703125
1320,0.003204345703125
1321,0.0030517578125
1322,0.003204345703125
1323,0.003204345703125
1324,0.00335693359375
1325,0.003204345703125
1326,0.002899169921875
1327,0.003204345703125
1328,0.003509521484375
1329,0.00335693359375
1330,0.003204345703125
1331,0.00335693359375
1332,0.003204345703125
1333,0.0030517578125
1334,0.00335693359375
1335,0.003509521484375
1336,0.003204345703125
1337,0.003662109375
1338,0.00335693359375
1339,0.0030517578125
1340,0.003509521484375
1341,0.003204345703125
1342,0.00335693359375
1343,0.003204345703125
1344,0.003509521484375
1345,0.00335693359375
1346,0.0030517578125
1347,0.003204345703125
1348,0.0030517578125
1349,0.0030517578125
1350,0.00335693359375
1351,0.003204345703125
1352,0.0030517578125
1353,0.003204345703125
1354,0.002899169921875
1355,0.0030517578125
1356,0.003509521484375
1357,0.003509521484375
1358,0.003204345703125
1359,0.00335693359375
1360,0.0030517578125
1361,0.0030517578125
1362,0.00335693359375
1363,0.003204345703125
1364,0.003204345703125
1365,0.00335693359375
1366,0.0030517578125
1367,0.003204345703125
1368,0.00335693359375
1369,0.003204345703125
1370,0.0030517578125
1371,0.003204345703125
1372,0.003204345703125
1373,0.00335693359375
1374,0.0030517578125
1375,0.00335693359375
1376,0.0030517578125
1377,0.003204345703125
1378,0.002899169921875
1379,0.003509521484375
1380,0.003204345703125
1381,0.003509521484375
1382,0.0030517578125
1383,0.0030517578125
1384,0.003509521484375
1385,0.003204345703125
1386,0.003509521484375
1387,0.0030517578125
1388,0.003509521484375
1389,0.0030517578125
1390,0.00335693359375
1391,0.003204345703125
1392,0.003204345703125
1393,0.003204345703125
1394,0.00457763671875
1395,0.005035400390625
1396,0.00579833984375
1397,0.005645751953125
1398,0.005340576171875
1399,0.0054931640625
1400,0.005645751953125
1401,0.006103515625
1402,0.00579833984375
1403,0.00579833984375
1404,0.006103515625
1405,0.006866455078125
1406,0.008087158203125
1407,0.00823974609375
1408,0.00823974609375
1409,0.00823974609375
1410,0.00823974609375
1411,0.00823974609375
1412,0.008544921875
1413,0.008544921875
1414,0.00823974609375
1415,0.00823974609375
1416,0.00823974609375
1417,0.00823974609375
1418,0.00823974609375
1419,0.008087158203125
1420,0.0079345703125
1421,0.008392333984375
1422,0.00762939453125
1423,0.008087158203125
1424,0.00762939453125
1425,0.008392333984375
1426,0.00823974609375
1427,0.009613037109375
1428,0.0103759765625
1429,0.010528564453125
1430,0.0103759765625
1431,0.010833740234375
1432,0.01068115234375
1433,0.010833740234375
1434,0.010833740234375
1435,0.010528564453125
1436,0.00946044921875
1437,0.00823974609375
1438,0.00823974609375
1439,0.008087158203125
1440,0.008392333984375
1441,0.00823974609375
1442,0.008392333984375
1443,0.008544921875
1444,0.008087158203125
1445,0.008087158203125
1446,0.008392333984375
1447,0.008087158203125
1448,0.008087158203125
1449,0.008087158203125
1450,0.0079345703125
1451,0.008087158203125
1452,0.00823974609375
1453,0.008087158203125
1454,0.008544921875
1455,0.008087158203125
1456,0.008087158203125
1457,0.008087158203125
1458,0.0079345703125
1459,0.008087158203125
1460,0.00946044921875
1461,0.010528564453125
1462,0.010528564453125
1463,0.01068115234375
1464,0.01068115234375
1465,0.010833740234375
1466,0.01068115234375
1467,0.01068115234375
1468,0.01068115234375
1469,0.010528564453125
1470,0.01068115234375
1471,0.01220703125
1472,0.0128173828125
1473,0.0128173828125
1474,0.0128173828125
1475,0.013275146484375
1476,0.01312255859375
1477,0.012664794921875
1478,0.012969970703125
1479,0.01312255859375
1480,0.012969970703125
1481,0.01312255859375
1482,0.013275146484375
1483,0.013275146484375
1484,0.01312255859375
1485,0.011749267578125
1486,0.010986328125
1487,0.010833740234375
1488,0.010833740234375
1489,0.01068115234375
1490,0.01068115234375
1491,0.0103759765625
1492,0.010833740234375
1493,0.010833740234375
1494,0.01068115234375
1495,0.01068115234375
1496,0.010833740234375
1497,0.010528564453125
1498,0.01068115234375
1499,0.010986328125
1500,0.010528564453125
1501,0.010833740234375
1502,0.0103759765625
1503,0.010528564453125
1504,0.010833740234375
1505,0.010528564453125
1506,0.010528564453125
1507,0.0103759765625
1508,0.010528564453125
1509,0.010528564453125
1510,0.010833740234375
1511,0.010528564453125
1512,0.01068115234375
1513,0.010528564453125
1514,0.010528564453125
1515,0.010528564453125
1516,0.010833740234375
1517,0.01068115234375
1518,0.01068115234375
1519,0.0103759765625
1520,0.0103759765625
1521,0.01068115234375
1522,0.01068115234375
1523,0.0103759765625
1524,0.010528564453125
1525,0.01068115234375
1526,0.010833740234375
1527,0.0103759765625
1528,0.01068115234375
1529,0.01068115234375
1530,0.010528564453125
1531,0.01068115234375
1532,0.010223388671875
1533,0.010986328125
1534,0.010528564453125
1535,0.01068115234375
1536,0.01068115234375
1537,0.01068115234375
1538,0.010833740234375
1539,0.010528564453125
1540,0.011749267578125
1541,0.012664794921875
1542,0.012969970703125
1543,0.01312255859375
1544,0.013427734375
1545,0.01312255859375
1546,0.013275146484375
1547,0.012664794921875
1548,0.014190673828125
1549,0.015411376953125
1550,0.01556396484375
1551,0.015411376953125
1552,0.01556396484375
1553,0.015411376953125
1554,0.01556396484375
1555,0.01708984375
1556,0.0177001953125
1557,0.0177001953125
1558,0.0177001953125
1559,0.01800537109375
1560,0.01800537109375
1561,0.0189208984375
1562,0.0201416015625
1563,0.02044677734375
1564,0.020294189453125
1565,0.021820068359375
1566,0.022735595703125
1567,0.02288818359375
1568,0.02288818359375
1569,0.0244140625
1570,0.0250244140625
1571,0.025482177734375
1572,0.02532958984375
1573,0.02685546875
1574,0.027618408203125
1575,0.028076171875
1576,0.02777099609375
1577,0.029296875
1578,0.03021240234375
1579,0.030517578125
1580,0.03143310546875
1581,0.032501220703125
1582,0.03265380859375
1583,0.034027099609375
1584,0.0347900390625
1585,0.036468505859375
1586,0.037078857421875
1587,0.038909912109375
1588,0.039520263671875
1589,0.04119873046875
1590,0.043182373046875
1591,0.044097900390625
1592,0.0457763671875
1593,0.0482177734375
1594,0.048980712890625
1595,0.050811767578125
1596,0.051727294921875
1597,0.0531005859375
1598,0.054168701171875
1599,0.054473876953125
1600,0.05584716796875
1601,0.05645751953125
1602,0.0567626953125
1603,0.058135986328125
1604,0.059051513671875
1605,0.059356689453125
1606,0.059356689453125
1607,0.05950927734375
1608,0.059051513671875
1609,0.05889892578125
1610,0.0592041015625
1611,0.059051513671875
1612,0.059051513671875
1613,0.058746337890625
1614,0.059356689453125
1615,0.057830810546875
1616,0.05706787109375
1617,0.05645751953125
1618,0.0567626953125
1619,0.0555419921875
1620,0.054473876953125
1621,0.054168701171875
1622,0.0543212890625
1623,0.054473876953125
1624,0.054473876953125
1625,0.0543212890625
1626,0.054168701171875
1627,0.054168701171875
1628,0.05401611328125
1629,0.0543212890625
1630,0.054473876953125
1631,0.05584716796875
1632,0.05645751953125
1633,0.0567626953125
1634,0.058135986328125
1635,0.05889892578125
1636,0.060577392578125
1637,0.06134033203125
1638,0.063018798828125
1639,0.065460205078125
1640,0.066375732421875
1641,0.067901611328125
1642,0.068817138671875
1643,0.070343017578125
1644,0.071258544921875
1645,0.071563720703125
1646,0.072784423828125
1647,0.073699951171875
1648,0.0738525390625
1649,0.073699951171875
1650,0.0726318359375
1651,0.071868896484375
1652,0.0714111328125
1653,0.0701904296875
1654,0.069122314453125
1655,0.0677490234375
1656,0.066986083984375
1657,0.0653076171875
1658,0.0628662109375
1659,0.06072998046875
1660,0.059356689453125
1661,0.057830810546875
1662,0.0555419921875
1663,0.0531005859375
1664,0.0518798828125
1665,0.050506591796875
1666,0.048370361328125
1667,0.045928955078125
1668,0.043182373046875
1669,0.040740966796875
1670,0.039215087890625
1671,0.034637451171875
1672,0.031585693359375
1673,0.02899169921875
1674,0.02655029296875
1675,0.02410888671875
1676,0.021514892578125
1677,0.02044677734375
1678,0.0189208984375
1679,0.016937255859375
1680,0.0146484375
1681,0.0115966796875
1682,0.010986328125
1683,0.009307861328125
1684,0.00701904296875
1685,0.005950927734375
1686,0.0042724609375
1687,0.00335693359375
1688,0.0018310546875
1689,0.000762939453125
1690,-0.0006103515625
1691,-0.001373291015625
1692,-0.0030517578125
1693,-0.003814697265625
1694,-0.005645751953125
1695,-0.00640869140625
1696,-0.008087158203125
1697,-0.008697509765625
1698,-0.009002685546875
1699,-0.010528564453125
1700,-0.01129150390625
1701,-0.011444091796875
1702,-0.0128173828125
1703,-0.013427734375
1704,-0.013885498046875
1705,-0.013580322265625
1706,-0.015106201171875
1707,-0.01617431640625
1708,-0.016326904296875
1709,-0.01617431640625
1710,-0.01617431640625
1711,-0.016326904296875
1712,-0.016326904296875
1713,-0.015106201171875
1714,-0.0140380859375
1715,-0.01373291015625
1716,-0.013580322265625
1717,-0.012054443359375
1718,-0.01190185546875
1719,-0.01129150390625
1720,-0.01129150390625
1721,-0.01129150390625
1722,-0.0115966796875
1723,-0.009918212890625
1724,-0.009002685546875
1725,-0.00885009765625
1726,-0.00885009765625
1727,-0.0091552734375
1728,-0.008697509765625
1729,-0.009002685546875
1730,-0.0091552734375
1731,-0.00885009765625
1732,-0.009002685546875
1733,-0.009002685546875
1734,-0.0091552734375
1735,-0.00885009765625
1736,-0.009002685546875
1737,-0.00885009765625
1738,-0.00885009765625
1739,-0.009002685546875
1740,-0.009002685546875
1741,-0.009002685546875
1742,-0.008697509765625
1743,-0.009002685546875
1744,-0.009002685546875
1745,-0.00946044921875
1746,-0.00885009765625
1747,-0.01007080078125
1748,-0.01129150390625
1749,-0.011444091796875
1750,-0.010986328125
1751,-0.011138916015625
1752,-0.0115966796875
1753,-0.01129150390625
1754,-0.01129150390625
1755,-0.0128173828125
1756,-0.013580322265625
1757,-0.01373291015625
1758,-0.01373291015625
1759,-0.01373291015625
1760,-0.013885498046875
1761,-0.015106201171875
1762,-0.015869140625
1763,-0.016326904296875
1764,-0.016326904296875
1765,-0.01800537109375
1766,-0.01861572265625
1767,-0.01861572265625
1768,-0.019073486328125
1769,-0.01861572265625
1770,-0.020294189453125
1771,-0.02105712890625
1772,-0.021209716796875
1773,-0.0213623046875
1774,-0.021514892578125
1775,-0.021209716796875
1776,-0.02166748046875
1777,-0.02105712890625
1778,-0.021209716796875
1779,-0.022430419921875
1780,-0.023651123046875
1781,-0.0238037109375
1782,-0.02349853515625
1783,-0.0238037109375
1784,-0.023651123046875
1785,-0.0238037109375
1786,-0.0238037109375
1787,-0.0238037109375
1788,-0.0238037109375
1789,-0.0238037109375
1790,-0.023651123046875
1791,-0.02349853515625
1792,-0.0238037109375
1793,-0.02349853515625
1794,-0.0238037109375
1795,-0.02349853515625
1796,-0.023651123046875
1797,-0.0238037109375
1798,-0.023651123046875
1799,-0.023345947265625
1800,-0.02410888671875
1801,-0.023651123046875
1802,-0.023651123046875
1803,-0.023651123046875
1804,-0.023651123046875
1805,-0.022125244140625
1806,-0.020904541015625
1807,-0.02105712890625
1808,-0.02105712890625
1809,-0.020904541015625
1810,-0.021209716796875
1811,-0.021209716796875
1812,-0.02105712890625
1813,-0.021209716796875
1814,-0.02105712890625
1815,-0.02105712890625
1816,-0.02105712890625
1817,-0.0213623046875
1818,-0.021514892578125
1819,-0.02105712890625
1820,-0.0213623046875
1821,-0.0213623046875
1822,-0.02105712890625
1823,-0.021209716796875
1824,-0.021209716796875
1825,-0.02105712890625
1826,-0.02105712890625
1827,-0.021209716796875
1828,-0.019683837890625
1829,-0.0189208984375
1830,-0.0189208984375
1831,-0.01861572265625
1832,-0.0189208984375
1833,-0.01861572265625
1834,-0.0189208984375
1835,-0.01861572265625
1836,-0.0189208984375
1837,-0.018768310546875
1838,-0.01739501953125
1839,-0.016632080078125
1840,-0.01617431640625
1841,-0.01617431640625
1842,-0.01617431640625
1843,-0.01617431640625
1844,-0.016326904296875
1845,-0.01617431640625
1846,-0.016326904296875
1847,-0.016326904296875
1848,-0.016021728515625
1849,-0.01617431640625
1850,-0.016326904296875
1851,-0.015106201171875
1852,-0.01434326171875
1853,-0.0140380859375
1854,-0.013885498046875
1855,-0.013580322265625
1856,-0.0140380859375
1857,-0.013580322265625
1858,-0.014190673828125
1859,-0.013885498046875
1860,-0.012359619140625
1861,-0.011749267578125
1862,-0.011444091796875
1863,-0.0115966796875
1864,-0.011138916015625
1865,-0.011444091796875
1866,-0.01129150390625
1867,-0.011444091796875
1868,-0.0103759765625
1869,-0.0091552734375
1870,-0.0091552734375
1871,-0.009002685546875
1872,-0.00885009765625
1873,-0.007781982421875
1874,-0.0067138671875
1875,-0.00640869140625
1876,-0.006256103515625
1877,-0.00640869140625
1878,-0.0067138671875
1879,-0.00640869140625
1880,-0.006561279296875
1881,-0.00640869140625
1882,-0.0048828125
1883,-0.0042724609375
1884,-0.004119873046875
1885,-0.00396728515625
1886,-0.004119873046875
1887,-0.004119873046875
1888,-0.00396728515625
1889,-0.00396728515625
1890,-0.004119873046875
1891,-0.00396728515625
1892,-0.003814697265625
1893,-0.003814697265625
1894,-0.004119873046875
1895,-0.003814697265625
1896,-0.003662109375
1897,-0.004119873046875
1898,-0.004119873046875
1899,-0.004119873046875
1900,-0.00396728515625
1901,-0.0054931640625
1902,-0.00640869140625
1903,-0.006256103515625
1904,-0.007781982421875
1905,-0.00885009765625
1906,-0.0103759765625
1907,-0.010833740234375
1908,-0.0128173828125
1909,-0.015411376953125
1910,-0.01739501953125
1911,-0.019989013671875
1912,-0.022430419921875
1913,-0.026092529296875
1914,-0.029449462890625
1915,-0.0335693359375
1916,-0.03692626953125
1917,-0.0408935546875
1918,-0.045623779296875
1919,-0.050506591796875
1920,-0.054168701171875
1921,-0.058135986328125
1922,-0.061187744140625
1923,-0.065155029296875
1924,-0.068511962890625
1925,-0.071258544921875
1926,-0.073699951171875
1927,-0.07598876953125
1928,-0.077056884765625
1929,-0.0775146484375
1930,-0.078887939453125
1931,-0.079345703125
1932,-0.0799560546875
1933,-0.079803466796875
1934,-0.0799560546875
1935,-0.07965087890625
1936,-0.0787353515625
1937,-0.0775146484375
1938,-0.0775146484375
1939,-0.077362060546875
1940,-0.07720947265625
1941,-0.076141357421875
1942,-0.074920654296875
1943,-0.0738525390625
1944,-0.0714111328125
1945,-0.068817138671875
1946,-0.06500244140625
1947,-0.061798095703125
1948,-0.057830810546875
1949,-0.05279541015625
1950,-0.046844482421875
1951,-0.0408935546875
1952,-0.03448486328125
1953,-0.027313232421875
1954,-0.019989013671875
1955,-0.012664794921875
1956,-0.004119873046875
1957,0.004119873046875
1958,0.01312255859375
1959,0.0225830078125
1960,0.03265380859375
1961,0.0421142578125
1962,0.053253173828125
1963,0.065155029296875
1964,0.078277587890625
1965,0.0933837890625
1966,0.109405517578125
1967,0.1263427734375
1968,0.1434326171875
1969,0.160064697265625
1970,0.17913818359375
1971,0.199737548828125
1972,0.22125244140625
1973,0.2447509765625
1974,0.269317626953125
1975,0.29510498046875
1976,0.323028564453125
1977,0.3533935546875
1978,0.3851318359375
1979,0.418243408203125
1980,0.453643798828125
1981,0.490570068359375
1982,0.526885986328125
1983,0.56488037109375
1984,0.603485107421875
1985,0.64300537109375
1986,0.68206787109375
1987,0.7208251953125
1988,0.760040283203125
1989,0.7977294921875
1990,0.8343505859375
1991,0.8697509765625
1992,0.902862548828125
1993,0.935211181640625
1994,0.962677001953125
1995,0.986480712890625
1996,1.007080078125
1997,1.024017333984375
1998,1.035003662109375
1999,1.04278564453125
2000,1.046295166015625
2001,1.045684814453125
2002,1.041717529296875
2003,1.034088134765625
2004,1.0235595703125
2005,1.0101318359375
2006,0.994110107421875
2007,0.974884033203125
2008,0.953216552734375
2009,0.929718017578125
2010,0.9039306640625
2011,0.87615966796875
2012,0.84686279296875
2013,0.81756591796875
2014,0.786590576171875
2015,0.7537841796875
2016,0.720977783203125
2017,0.689239501953125
2018,0.6561279296875
2019,0.621795654296875
2020,0.58807373046875
2021,0.555267333984375
2022,0.5218505859375
2023,0.487823486328125
2024,0.454864501953125
2025,0.422821044921875
2026,0.391387939453125
2027,0.3594970703125
2028,0.327606201171875
2029,0.2972412109375
2030,0.267791748046875
2031,0.23681640625
2032,0.207977294921875
2033,0.179443359375
2034,0.150146484375
2035,0.12237548828125
2036,0.09521484375
2037,0.068206787109375
2038,0.04150390625
2039,0.014801025390625
2040,-0.012054443359375
2041,-0.037689208984375
2042,-0.06256103515625
2043,-0.08697509765625
2044,-0.111541748046875
2045,-0.135498046875
2046,-0.15869140625
2047,-0.180816650390625
2048,-0.20172119140625
2049,-0.22125244140625
2050,-0.2410888671875
2051,-0.25909423828125
2052,-0.276336669921875
2053,-0.29327392578125
2054,-0.30914306640625
2055,-0.324249267578125
2056,-0.337677001953125
2057,-0.349884033203125
2058,-0.3619384765625
2059,-0.372772216796875
2060,-0.384368896484375
2061,-0.393524169921875
2062,-0.40252685546875
2063,-0.4107666015625
2064,-0.418548583984375
2065,-0.424041748046875
2066,-0.429534912109375
2067,-0.4327392578125
2068,-0.435943603515625
2069,-0.43792724609375
2070,-0.43914794921875
2071,-0.440673828125
2072,-0.440521240234375
2073,-0.439300537109375
2074,-0.437774658203125
2075,-0.435638427734375
2076,-0.433349609375
2077,-0.42938232421875
2078,-0.425872802734375
2079,-0.422210693359375
2080,-0.41748046875
2081,-0.412139892578125
2082,-0.40740966796875
2083,-0.401153564453125
2084,-0.39581298828125
2085,-0.388946533203125
2086,-0.381927490234375
2087,-0.3759765625
2088,-0.369720458984375
2089,-0.362548828125
2090,-0.35491943359375
2091,-0.3460693359375
2092,-0.338134765625
2093,-0.330810546875
2094,-0.32196044921875
2095,-0.313568115234375
2096,-0.305023193359375
2097,-0.296478271484375
2098,-0.28778076171875
2099,-0.279693603515625
2100,-0.272064208984375
2101,-0.26336669921875
2102,-0.254974365234375
2103,-0.2459716796875
2104,-0.238037109375
2105,-0.23040771484375
2106,-0.223236083984375
2107,-0.215606689453125
2108,-0.208587646484375
2109,-0.202484130859375
2110,-0.196075439453125
2111,-0.189971923828125
2112,-0.183563232421875
2113,-0.178375244140625
2114,-0.17303466796875
2115,-0.168304443359375
2116,-0.16357421875
2117,-0.1580810546875
2118,-0.1531982421875
2119,-0.149993896484375
2120,-0.146026611328125
2121,-0.142974853515625
2122,-0.1385498046875
2123,-0.13519287109375
2124,-0.132293701171875
2125,-0.128631591796875
2126,-0.1251220703125
2127,-0.1226806640625
2128,-0.12054443359375
2129,-0.11810302734375
2130,-0.1153564453125
2131,-0.11322021484375
2132,-0.1104736328125
2133,-0.1080322265625
2134,-0.106964111328125
2135,-0.105438232421875
2136,-0.10284423828125
2137,-0.1007080078125
2138,-0.099639892578125
2139,-0.09765625
2140,-0.0958251953125
2141,-0.09490966796875
2142,-0.09307861328125
2143,-0.0909423828125
2144,-0.0897216796875
2145,-0.088348388671875
2146,-0.087432861328125
2147,-0.0860595703125
2148,-0.084686279296875
2149,-0.083465576171875
2150,-0.082244873046875
2151,-0.081024169921875
2152,-0.07965087890625
2153,-0.078277587890625
2154,-0.07781982421875
2155,-0.076141357421875
2156,-0.07537841796875
2157,-0.0738525390625
2158,-0.072784423828125
2159,-0.072174072265625
2160,-0.071258544921875
2161,-0.070343017578125
2162,-0.068817138671875
2163,-0.0677490234375
2164,-0.067596435546875
2165,-0.066375732421875
2166,-0.0653076171875
2167,-0.0640869140625
2168,-0.063018798828125
2169,-0.062255859375
2170,-0.061187744140625
2171,-0.0604248046875
2172,-0.060272216796875
2173,-0.05859375
2174,-0.057830810546875
2175,-0.05767822265625
2176,-0.05767822265625
2177,-0.05645751953125
2178,-0.0555419921875
2179,-0.05523681640625
2180,-0.05401611328125
2181,-0.0531005859375
2182,-0.05279541015625
2183,-0.05279541015625
2184,-0.0518798828125
2185,-0.0506591796875
2186,-0.0506591796875
2187,-0.050506591796875
2188,-0.04913330078125
2189,-0.048370361328125
2190,-0.04791259765625
2191,-0.048065185546875
2192,-0.04638671875
2193,-0.0457763671875
2194,-0.0457763671875
2195,-0.04547119140625
2196,-0.0445556640625
2197,-0.04364013671875
2198,-0.0433349609375
2199,-0.043182373046875
2200,-0.04180908203125
2201,-0.0408935546875
2202,-0.04058837890625
2203,-0.0408935546875
2204,-0.0390625
2205,-0.0384521484375
2206,-0.03814697265625
2207,-0.03814697265625
2208,-0.03814697265625
2209,-0.03692626953125
2210,-0.036163330078125
2211,-0.035858154296875
2212,-0.0360107421875
2213,-0.034637451171875
2214,-0.033721923828125
2215,-0.0335693359375
2216,-0.033416748046875
2217,-0.03326416015625
2218,-0.031890869140625
2219,-0.0311279296875
2220,-0.03082275390625
2221,-0.030975341796875
2222,-0.030975341796875
2223,-0.0311279296875
2224,-0.029754638671875
2225,-0.028533935546875
2226,-0.0286865234375
2227,-0.028533935546875
2228,-0.0286865234375
2229,-0.0286865234375
2230,-0.02838134765625
2231,-0.028076171875
2232,-0.02716064453125
2233,-0.026397705078125
2234,-0.02593994140625
2235,-0.025634765625
2236,-0.02593994140625
2237,-0.026092529296875
2238,-0.025177001953125
2239,-0.0238037109375
2240,-0.02349853515625
2241,-0.023651123046875
2242,-0.02349853515625
2243,-0.02349853515625
2244,-0.02227783203125
2245,-0.0213623046875
2246,-0.021209716796875
2247,-0.021209716796875
2248,-0.02105712890625
2249,-0.0213623046875
2250,-0.01983642578125
2251,-0.0189208984375
2252,-0.01861572265625
2253,-0.018768310546875
2254,-0.0189208984375
2255,-0.01861572265625
2256,-0.018768310546875
2257,-0.01861572265625
2258,-0.017242431640625
2259,-0.016326904296875
2260,-0.016326904296875
2261,-0.016326904296875
2262,-0.016326904296875
2263,-0.01617431640625
2264,-0.016326904296875
2265,-0.01434326171875
2266,-0.01373291015625
2267,-0.013885498046875
2268,-0.0140380859375
2269,-0.01373291015625
2270,-0.01373291015625
2271,-0.012664794921875
2272,-0.01190185546875
2273,-0.011444091796875
2274,-0.011444091796875
2275,-0.011749267578125
2276,-0.011444091796875
2277,-0.011444091796875
2278,-0.01129150390625
2279,-0.010223388671875
2280,-0.009002685546875
2281,-0.009002685546875
2282,-0.0091552734375
2283,-0.00885009765625
2284,-0.009002685546875
2285,-0.0079345703125
2286,-0.0067138671875
2287,-0.0067138671875
2288,-0.006561279296875
2289,-0.00640869140625
2290,-0.00518798828125
2291,-0.0042724609375
2292,-0.003814697265625
2293,-0.004119873046875
2294,-0.00244140625
2295,-0.001678466796875
2296,-0.0018310546875
2297,-0.001678466796875
2298,-0.00152587890625
2299,-0.0006103515625
2300,0.000457763671875
2301,0.000762939453125
2302,0.00091552734375
2303,0.0006103515625
2304,0.0006103515625
2305,0.0018310546875
2306,0.0030517578125
2307,0.00335693359375
2308,0.00335693359375
2309,0.003204345703125
2310,0.0042724609375
2311,0.005950927734375
2312,0.005340576171875
2313,0.006103515625
2314,0.0054931640625
2315,0.007171630859375
2316,0.007781982421875
2317,0.0079345703125
2318,0.00823974609375
2319,0.00946044921875
2320,0.010223388671875
2321,0.0103759765625
2322,0.010528564453125
2323,0.01068115234375
2324,0.01190185546875
2325,0.012969970703125
2326,0.012664794921875
2327,0.01312255859375
2328,0.0146484375
2329,0.015106201171875
2330,0.0152587890625
2331,0.015716552734375
2332,0.01556396484375
2333,0.01708984375
2334,0.0177001953125
2335,0.018157958984375
2336,0.017852783203125
2337,0.018157958984375
2338,0.017852783203125
2339,0.01922607421875
2340,0.019989013671875
2341,0.02044677734375
2342,0.02044677734375
2343,0.020294189453125
2344,0.02044677734375
2345,0.02044677734375
2346,0.022125244140625
2347,0.02227783203125
2348,0.02288818359375
2349,0.023193359375
2350,0.022735595703125
2351,0.023956298828125
2352,0.024871826171875
2353,0.02532958984375
2354,0.02532958984375
2355,0.02532958984375
2356,0.026702880859375
2357,0.027618408203125
2358,0.027618408203125
2359,0.027618408203125
2360,0.027618408203125
2361,0.02899169921875
2362,0.029754638671875
2363,0.03021240234375
2364,0.030364990234375
2365,0.03021240234375
2366,0.031585693359375
2367,0.0323486328125
2368,0.032501220703125
2369,0.032501220703125
2370,0.032501220703125
2371,0.034027099609375
2372,0.034942626953125
2373,0.03509521484375
2374,0.035247802734375
2375,0.03509521484375
2376,0.03509521484375
2377,0.03509521484375
2378,0.036163330078125
2379,0.037384033203125
2380,0.0372314453125
2381,0.03753662109375
2382,0.03753662109375
2383,0.037841796875
2384,0.039215087890625
2385,0.039825439453125
2386,0.039520263671875
2387,0.03936767578125
2388,0.041046142578125
2389,0.04180908203125
2390,0.041961669921875
2391,0.041961669921875
2392,0.043487548828125
2393,0.0445556640625
2394,0.0445556640625
2395,0.0445556640625
2396,0.044403076171875
2397,0.045623779296875
2398,0.0469970703125
2399,0.046844482421875
2400,0.047454833984375
2401,0.048065185546875
2402,0.049285888671875
2403,0.049285888671875
2404,0.050506591796875
2405,0.051727294921875
2406,0.0518798828125
2407,0.0518798828125
2408,0.05340576171875
2409,0.05401611328125
2410,0.0543212890625
2411,0.05584716796875
2412,0.056610107421875
2413,0.05706787109375
2414,0.0579833984375
2415,0.0592041015625
2416,0.0592041015625
2417,0.06072998046875
2418,0.0616455078125
2419,0.0616455078125
2420,0.0628662109375
2421,0.0640869140625
2422,0.06378173828125
2423,0.06561279296875
2424,0.06622314453125
2425,0.067596435546875
2426,0.0689697265625
2427,0.070037841796875
2428,0.071563720703125
2429,0.07171630859375
2430,0.0726318359375
2431,0.074005126953125
2432,0.075531005859375
2433,0.07598876953125
2434,0.0775146484375
2435,0.078582763671875
2436,0.080108642578125
2437,0.081329345703125
2438,0.081329345703125
2439,0.082550048828125
2440,0.0836181640625
2441,0.085296630859375
2442,0.0860595703125
2443,0.087432861328125
2444,0.08819580078125
2445,0.08880615234375
2446,0.089874267578125
2447,0.0909423828125
2448,0.092620849609375
2449,0.093536376953125
2450,0.095062255859375
2451,0.09552001953125
2452,0.097503662109375
2453,0.0982666015625
2454,0.099639892578125
2455,0.100555419921875
2456,0.1025390625
2457,0.102996826171875
2458,0.10467529296875
2459,0.105438232421875
2460,0.1055908203125
2461,0.1068115234375
2462,0.107879638671875
2463,0.1092529296875
2464,0.110321044921875
2465,0.11199951171875
2466,0.1129150390625
2467,0.114288330078125
2468,0.115509033203125
2469,0.115203857421875
2470,0.117034912109375
2471,0.11749267578125
2472,0.11932373046875
2473,0.1202392578125
2474,0.120697021484375
2475,0.122222900390625
2476,0.122833251953125
2477,0.124053955078125
2478,0.125274658203125
2479,0.12542724609375
2480,0.12664794921875
2481,0.127410888671875
2482,0.12908935546875
2483,0.1300048828125
2484,0.1300048828125
2485,0.13153076171875
2486,0.13214111328125
2487,0.1324462890625
2488,0.134124755859375
2489,0.135040283203125
2490,0.13519287109375
2491,0.13641357421875
2492,0.1373291015625
2493,0.13763427734375
2494,0.137481689453125
2495,0.13916015625
2496,0.139617919921875
2497,0.139923095703125
2498,0.1397705078125
2499,0.139923095703125
2500,0.141448974609375
2501,0.142059326171875
2502,0.14251708984375
2503,0.14251708984375
2504,0.142669677734375
2505,0.1422119140625
2506,0.14373779296875
2507,0.144805908203125
2508,0.144805908203125
2509,0.1446533203125
2510,0.14495849609375
2511,0.144805908203125
2512,0.146331787109375
2513,0.14678955078125
2514,0.1470947265625
2515,0.147247314453125
2516,0.147247314453125
2517,0.1470947265625
2518,0.147552490234375
2519,0.14892578125
2520,0.14984130859375
2521,0.1495361328125
2522,0.14984130859375
2523,0.149688720703125
2524,0.14984130859375
2525,0.14984130859375
2526,0.14984130859375
2527,0.14984130859375
2528,0.149688720703125
2529,0.14984130859375
2530,0.150146484375
2531,0.14984130859375
2532,0.150146484375
2533,0.14984130859375
2534,0.149688720703125
2535,0.149993896484375
2536,0.149688720703125
2537,0.149688720703125
2538,0.149993896484375
2539,0.149383544921875
2540,0.14984130859375
2541,0.149688720703125
2542,0.149688720703125
2543,0.1495361328125
2544,0.14984130859375
2545,0.149383544921875
2546,0.149993896484375
2547,0.149993896484375
2548,0.1483154296875
2549,0.14739990234375
2550,0.147247314453125
2551,0.1470947265625
2552,0.145721435546875
2553,0.145111083984375
2554,0.145111083984375
2555,0.1446533203125
2556,0.143585205078125
2557,0.142822265625
2558,0.141143798828125
2559,0.14007568359375
2560,0.138397216796875
2561,0.13763427734375
2562,0.136260986328125
2563,0.135498046875
2564,0.1336669921875
2565,0.13275146484375
2566,0.131378173828125
2567,0.12908935546875
2568,0.128021240234375
2569,0.1263427734375
2570,0.124053955078125
2571,0.12176513671875
2572,0.119171142578125
2573,0.11688232421875
2574,0.1141357421875
2575,0.1116943359375
2576,0.109710693359375
2577,0.1068115234375
2578,0.1043701171875
2579,0.102081298828125
2580,0.09979248046875
2581,0.09735107421875
2582,0.093231201171875
2583,0.090179443359375
2584,0.087127685546875
2585,0.084991455078125
2586,0.082550048828125
2587,0.0787353515625
2588,0.07537841796875
2589,0.0726318359375
2590,0.0701904296875
2591,0.066375732421875
2592,0.06317138671875
2593,0.060272216796875
2594,0.0567626953125
2595,0.053253173828125
2596,0.049285888671875
2597,0.04608154296875
2598,0.043182373046875
2599,0.039825439453125
2600,0.036773681640625
2601,0.032501220703125
2602,0.029296875
2603,0.025482177734375
2604,0.020294189453125
2605,0.016632080078125
2606,0.0128173828125
2607,0.01007080078125
2608,0.005950927734375
2609,0.001068115234375
2610,-0.00274658203125
2611,-0.006866455078125
2612,-0.009765625
2613,-0.01373291015625
2614,-0.018768310546875
2615,-0.022430419921875
2616,-0.02593994140625
2617,-0.029144287109375
2618,-0.033416748046875
2619,-0.03692626953125
2620,-0.0408935546875
2621,-0.04425048828125
2622,-0.0482177734375
2623,-0.051422119140625
2624,-0.05584716796875
2625,-0.05889892578125
2626,-0.0616455078125
2627,-0.065460205078125
2628,-0.0689697265625
2629,-0.07110595703125
2630,-0.07537841796875
2631,-0.078277587890625
2632,-0.0811767578125
2633,-0.083465576171875
2634,-0.086212158203125
2635,-0.089569091796875
2636,-0.09307861328125
2637,-0.095672607421875
2638,-0.098419189453125
2639,-0.10040283203125
2640,-0.102996826171875
2641,-0.1055908203125
2642,-0.10772705078125
2643,-0.11016845703125
2644,-0.114593505859375
2645,-0.1177978515625
2646,-0.1202392578125
2647,-0.1226806640625
2648,-0.124969482421875
2649,-0.127716064453125
2650,-0.12969970703125
2651,-0.132293701171875
2652,-0.133209228515625
2653,-0.135040283203125
2654,-0.13702392578125
2655,-0.139923095703125
2656,-0.1422119140625
2657,-0.1446533203125
2658,-0.14556884765625
2659,-0.14739990234375
2660,-0.149993896484375
2661,-0.150604248046875
2662,-0.152130126953125
2663,-0.154571533203125
2664,-0.1556396484375
2665,-0.156707763671875
2666,-0.1580810546875
2667,-0.159454345703125
2668,-0.160369873046875
2669,-0.162200927734375
2670,-0.16265869140625
2671,-0.16448974609375
2672,-0.165252685546875
2673,-0.16693115234375
2674,-0.167388916015625
2675,-0.167999267578125
2676,-0.169525146484375
2677,-0.16998291015625
2678,-0.170440673828125
2679,-0.171966552734375
2680,-0.17242431640625
2681,-0.17425537109375
2682,-0.17486572265625
2683,-0.175628662109375
2684,-0.1751708984375
2685,-0.1763916015625
2686,-0.1776123046875
2687,-0.177459716796875
2688,-0.17730712890625
2689,-0.178985595703125
2690,-0.17974853515625
2691,-0.180206298828125
2692,-0.180206298828125
2693,-0.1800537109375
2694,-0.18035888671875
2695,-0.17974853515625
2696,-0.1800537109375
2697,-0.181427001953125
2698,-0.18218994140625
2699,-0.182647705078125
2700,-0.182342529296875
2701,-0.182647705078125
2702,-0.18280029296875
2703,-0.18218994140625
2704,-0.182647705078125
2705,-0.182647705078125
2706,-0.182647705078125
2707,-0.182342529296875
2708,-0.1812744140625
2709,-0.180206298828125
2710,-0.17974853515625
2711,-0.1800537109375
2712,-0.1800537109375
2713,-0.180206298828125
2714,-0.180206298828125
2715,-0.178985595703125
2716,-0.178070068359375
2717,-0.1776123046875
2718,-0.177764892578125
2719,-0.177764892578125
2720,-0.1776123046875
2721,-0.1763916015625
2722,-0.17547607421875
2723,-0.1751708984375
2724,-0.1751708984375
2725,-0.175018310546875
2726,-0.17425537109375
2727,-0.172882080078125
2728,-0.172882080078125
2729,-0.172882080078125
2730,-0.171661376953125
2731,-0.170440673828125
2732,-0.1702880859375
2733,-0.170440673828125
2734,-0.168914794921875
2735,-0.1678466796875
2736,-0.16815185546875
2737,-0.166778564453125
2738,-0.16571044921875
2739,-0.1654052734375
2740,-0.164337158203125
2741,-0.16326904296875
2742,-0.163116455078125
2743,-0.16143798828125
2744,-0.160369873046875
2745,-0.160675048828125
2746,-0.15899658203125
2747,-0.158233642578125
2748,-0.158233642578125
2749,-0.156707763671875
2750,-0.156097412109375
2751,-0.15594482421875
2752,-0.155792236328125
2753,-0.1544189453125
2754,-0.15350341796875
2755,-0.153350830078125
2756,-0.153350830078125
2757,-0.1519775390625
2758,-0.150909423828125
2759,-0.150604248046875
2760,-0.1495361328125
2761,-0.14862060546875
2762,-0.1483154296875
2763,-0.1483154296875
2764,-0.146942138671875
2765,-0.146026611328125
2766,-0.1458740234375
2767,-0.1458740234375
2768,-0.14434814453125
2769,-0.143585205078125
2770,-0.1434326171875
2771,-0.1422119140625
2772,-0.141143798828125
2773,-0.14068603515625
2774,-0.1409912109375
2775,-0.13946533203125
2776,-0.13885498046875
2777,-0.1385498046875
2778,-0.137176513671875
2779,-0.13641357421875
2780,-0.136260986328125
2781,-0.1361083984375
2782,-0.13458251953125
2783,-0.133819580078125
2784,-0.13397216796875
2785,-0.1324462890625
2786,-0.1312255859375
2787,-0.13092041015625
2788,-0.129852294921875
2789,-0.1287841796875
2790,-0.128631591796875
2791,-0.128936767578125
2792,-0.127410888671875
2793,-0.12664794921875
2794,-0.12603759765625
2795,-0.12481689453125
2796,-0.12420654296875
2797,-0.1239013671875
2798,-0.123748779296875
2799,-0.122833251953125
2800,-0.121917724609375
2801,-0.121612548828125
2802,-0.120086669921875
2803,-0.1190185546875
2804,-0.118865966796875
2805,-0.1177978515625
2806,-0.116729736328125
2807,-0.116424560546875
2808,-0.115509033203125
2809,-0.11444091796875
2810,-0.114288330078125
2811,-0.11260986328125
2812,-0.1116943359375
2813,-0.111541748046875
2814,-0.11016845703125
2815,-0.109405517578125
2816,-0.1092529296875
2817,-0.107574462890625
2818,-0.1068115234375
2819,-0.1068115234375
2820,-0.105438232421875
2821,-0.10467529296875
2822,-0.104217529296875
2823,-0.1025390625
2824,-0.102386474609375
2825,-0.101776123046875
2826,-0.1007080078125
2827,-0.09979248046875
2828,-0.099334716796875
2829,-0.098114013671875
2830,-0.09735107421875
2831,-0.09674072265625
2832,-0.095672607421875
2833,-0.094451904296875
2834,-0.094451904296875
2835,-0.09429931640625
2836,-0.093536376953125
2837,-0.092315673828125
2838,-0.0921630859375
2839,-0.090789794921875
2840,-0.089874267578125
2841,-0.089569091796875
2842,-0.088043212890625
2843,-0.087432861328125
2844,-0.0872802734375
2845,-0.085906982421875
2846,-0.0848388671875
2847,-0.084686279296875
2848,-0.08331298828125
2849,-0.0823974609375
2850,-0.0823974609375
2851,-0.0811767578125
2852,-0.08026123046875
2853,-0.079803466796875
2854,-0.080108642578125
2855,-0.078125
2856,-0.077667236328125
2857,-0.0775146484375
2858,-0.076141357421875
2859,-0.07537841796875
2860,-0.074920654296875
2861,-0.07476806640625
2862,-0.073699951171875
2863,-0.072784423828125
2864,-0.0726318359375
2865,-0.07232666015625
2866,-0.07110595703125
2867,-0.0701904296875
2868,-0.0701904296875
2869,-0.070037841796875
2870,-0.06866455078125
2871,-0.068206787109375
2872,-0.067901611328125
2873,-0.067291259765625
2874,-0.067596435546875
2875,-0.066375732421875
2876,-0.065460205078125
2877,-0.065155029296875
2878,-0.06561279296875
2879,-0.06500244140625
2880,-0.065155029296875
2881,-0.063934326171875
2882,-0.063018798828125
2883,-0.062713623046875
2884,-0.062713623046875
2885,-0.062713623046875
2886,-0.062713623046875
2887,-0.06134033203125
2888,-0.060577392578125
2889,-0.0604248046875
2890,-0.0604248046875
2891,-0.0604248046875
2892,-0.0604248046875
2893,-0.05859375
2894,-0.0579833984375
2895,-0.05767822265625
2896,-0.058135986328125
2897,-0.058135986328125
2898,-0.05767822265625
2899,-0.05645751953125
2900,-0.0555419921875
2901,-0.0555419921875
2902,-0.0555419921875
2903,-0.055389404296875
2904,-0.0555419921875
2905,-0.055389404296875
2906,-0.05523681640625
2907,-0.05401611328125
2908,-0.0531005859375
2909,-0.05279541015625
2910,-0.052642822265625
2911,-0.052947998046875
2912,-0.052947998046875
2913,-0.05279541015625
2914,-0.051422119140625
2915,-0.05096435546875
2916,-0.0506591796875
2917,-0.050506591796875
2918,-0.050506591796875
2919,-0.050506591796875
2920,-0.050506591796875
2921,-0.04913330078125
2922,-0.04852294921875
2923,-0.048065185546875
2924,-0.0482177734375
2925,-0.04791259765625
2926,-0.048065185546875
2927,-0.04791259765625
2928,-0.046539306640625
2929,-0.04608154296875
2930,-0.045928955078125
2931,-0.045318603515625
2932,-0.045623779296875
2933,-0.045928955078125
2934,-0.044403076171875
2935,-0.043487548828125
2936,-0.043487548828125
2937,-0.043182373046875
2938,-0.0433349609375
2939,-0.043182373046875
2940,-0.043182373046875
2941,-0.042877197265625
2942,-0.04180908203125
2943,-0.041046142578125
2944,-0.04058837890625
2945,-0.04058837890625
2946,-0.041046142578125
2947,-0.04058837890625
2948,-0.0408935546875
2949,-0.0408935546875
2950,-0.04058837890625
2951,-0.04058837890625
2952,-0.040740966796875
2953,-0.040740966796875
2954,-0.04058837890625
2955,-0.03936767578125
2956,-0.0384521484375
2957,-0.03814697265625
2958,-0.038604736328125
2959,-0.038299560546875
2960,-0.038604736328125
2961,-0.0384521484375
2962,-0.038299560546875
2963,-0.03692626953125
2964,-0.036163330078125
2965,-0.035858154296875
2966,-0.03570556640625
2967,-0.03570556640625
2968,-0.036163330078125
2969,-0.035858154296875
2970,-0.035552978515625
2971,-0.035858154296875
2972,-0.0360107421875
2973,-0.034637451171875
2974,-0.0335693359375
2975,-0.033416748046875
2976,-0.03326416015625
2977,-0.032958984375
2978,-0.03326416015625
2979,-0.0335693359375
2980,-0.033111572265625
2981,-0.033416748046875
2982,-0.0323486328125
2983,-0.0311279296875
2984,-0.03082275390625
2985,-0.031280517578125
2986,-0.03082275390625
2987,-0.030975341796875
2988,-0.030975341796875
2989,-0.030975341796875
2990,-0.03082275390625
2991,-0.03082275390625
2992,-0.02960205078125
2993,-0.028533935546875
2994,-0.028533935546875
2995,-0.028533935546875
2996,-0.02838134765625
2997,-0.028533935546875
2998,-0.028228759765625
2999,-0.0286865234375
3000,-0.028839111328125
3001,-0.028533935546875
3002,-0.028533935546875
3003,-0.028533935546875
3004,-0.028533935546875
3005,-0.028533935546875
3006,-0.0286865234375
3007,-0.02716064453125
3008,-0.02655029296875
3009,-0.0262451171875
3010,-0.02593994140625
3011,-0.026092529296875
3012,-0.026092529296875
3013,-0.02593994140625
3014,-0.026092529296875
3015,-0.026092529296875
3016,-0.025787353515625
3017,-0.024871826171875
3018,-0.0238037109375
3019,-0.02349853515625
3020,-0.023651123046875
3021,-0.0238037109375
3022,-0.023956298828125
3023,-0.023956298828125
3024,-0.0238037109375
3025,-0.0238037109375
3026,-0.023956298828125
3027,-0.02227783203125
3028,-0.02166748046875
3029,-0.021514892578125
3030,-0.0213623046875
3031,-0.021514892578125
3032,-0.0213623046875
3033,-0.021209716796875
3034,-0.021209716796875
3035,-0.02105712890625
3036,-0.02105712890625
3037,-0.020904541015625
3038,-0.021209716796875
3039,-0.021209716796875
3040,-0.0213623046875
3041,-0.020751953125
3042,-0.021209716796875
3043,-0.02105712890625
3044,-0.021209716796875
3045,-0.021209716796875
3046,-0.021209716796875
3047,-0.0213623046875
3048,-0.02105712890625
3049,-0.021209716796875
3050,-0.020904541015625
3051,-0.02105712890625
3052,-0.021209716796875
3053,-0.021209716796875
3054,-0.021209716796875
3055,-0.0213623046875
3056,-0.021209716796875
3057,-0.020904541015625
3058,-0.020904541015625
3059,-0.0213623046875
3060,-0.021514892578125
3061,-0.021514892578125
3062,-0.02105712890625
3063,-0.0213623046875
3064,-0.02105712890625
3065,-0.020904541015625
3066,-0.0213623046875
3067,-0.021209716796875
3068,-0.021209716796875
3069,-0.021209716796875
3070,-0.020904541015625
3071,-0.021209716796875
3072,-0.021209716796875
3073,-0.0213623046875
3074,-0.020751953125
3075,-0.021209716796875
3076,-0.02105712890625
3077,-0.02105712890625
3078,-0.021209716796875
3079,-0.021209716796875
3080,-0.02105712890625
3081,-0.019989013671875
3082,-0.018768310546875
3083,-0.018768310546875
3084,-0.01861572265625
3085,-0.01861572265625
3086,-0.0189208984375
3087,-0.0189208984375
3088,-0.018768310546875
3089,-0.018768310546875
3090,-0.018768310546875
3091,-0.019073486328125
3092,-0.0189208984375
3093,-0.01861572265625
3094,-0.0189208984375
3095,-0.0189208984375
3096,-0.018463134765625
3097,-0.018768310546875
3098,-0.018768310546875
3099,-0.0189208984375
3100,-0.0189208984375
3101,-0.018768310546875
3102,-0.01739501953125
3103,-0.0164794921875
3104,-0.016326904296875
3105,-0.01617431640625
3106,-0.01617431640625
3107,-0.0164794921875
3108,-0.0164794921875
3109,-0.016326904296875
3110,-0.016326904296875
3111,-0.016632080078125
3112,-0.0164794921875
3113,-0.01617431640625
3114,-0.0164794921875
3115,-0.016326904296875
3116,-0.0164794921875
3117,-0.015869140625
3118,-0.016326904296875
3119,-0.016326904296875
3120,-0.0164794921875
3121,-0.016021728515625
3122,-0.016326904296875
3123,-0.0164794921875
3124,-0.01617431640625
3125,-0.0164794921875
3126,-0.0164794921875
3127,-0.016326904296875
3128,-0.01617431640625
3129,-0.0164794921875
3130,-0.01617431640625
3131,-0.016021728515625
3132,-0.0146484375
3133,-0.0140380859375
3134,-0.013885498046875
3135,-0.013885498046875
3136,-0.013885498046875
3137,-0.013885498046875
3138,-0.01373291015625
3139,-0.0140380859375
3140,-0.0140380859375
3141,-0.013885498046875
3142,-0.013580322265625
3143,-0.012664794921875
3144,-0.01190185546875
3145,-0.011749267578125
3146,-0.0115966796875
3147,-0.011444091796875
3148,-0.01129150390625
3149,-0.0115966796875
3150,-0.01129150390625
3151,-0.011444091796875
3152,-0.01129150390625
3153,-0.011444091796875
3154,-0.011444091796875
3155,-0.01129150390625
3156,-0.01129150390625
3157,-0.011444091796875
3158,-0.01129150390625
3159,-0.011444091796875
3160,-0.011749267578125
3161,-0.0115966796875
3162,-0.01129150390625
3163,-0.01129150390625
3164,-0.011444091796875
3165,-0.009765625
3166,-0.009307861328125
3167,-0.009002685546875
3168,-0.00885009765625
3169,-0.009002685546875
3170,-0.0091552734375
3171,-0.0091552734375
3172,-0.008697509765625
3173,-0.008544921875
3174,-0.00885009765625
3175,-0.00885009765625
3176,-0.00885009765625
3177,-0.009002685546875
3178,-0.00946044921875
3179,-0.0091552734375
3180,-0.009307861328125
3181,-0.0091552734375
3182,-0.008544921875
3183,-0.00762939453125
3184,-0.0067138671875
3185,-0.00640869140625
3186,-0.00640869140625
3187,-0.00640869140625
3188,-0.006561279296875
3189,-0.006561279296875
3190,-0.006256103515625
3191,-0.006561279296875
3192,-0.00640869140625
3193,-0.006256103515625
3194,-0.006103515625
3195,-0.0067138671875
3196,-0.00640869140625
3197,-0.00640869140625
3198,-0.006256103515625
3199,-0.00640869140625
3200,-0.006256103515625
3201,-0.006256103515625
3202,-0.0067138671875
3203,-0.006561279296875
3204,-0.00640869140625
3205,-0.0067138671875
3206,-0.00640869140625
3207,-0.006561279296875
3208,-0.00640869140625
3209,-0.006256103515625
3210,-0.006561279296875
3211,-0.00640869140625
3212,-0.006561279296875
3213,-0.00640869140625
3214,-0.0067138671875
3215,-0.00640869140625
3216,-0.006256103515625
3217,-0.006561279296875
3218,-0.006561279296875
3219,-0.006561279296875
3220,-0.006256103515625
3221,-0.006256103515625
3222,-0.00640869140625
3223,-0.0067138671875
3224,-0.00640869140625
3225,-0.00640869140625
3226,-0.006561279296875
3227,-0.006256103515625
3228,-0.006256103515625
3229,-0.006561279296875
3230,-0.006561279296875
3231,-0.00518798828125
3232,-0.0042724609375
3233,-0.003814697265625
3234,-0.003814697265625
3235,-0.004119873046875
3236,-0.004119873046875
3237,-0.00396728515625
3238,-0.00396728515625
3239,-0.00396728515625
3240,-0.004119873046875
3241,-0.00396728515625
3242,-0.00396728515625
3243,-0.003509521484375
3244,-0.00396728515625
3245,-0.003662109375
3246,-0.003814697265625
3247,-0.004119873046875
3248,-0.003662109375
3249,-0.004119873046875
3250,-0.0042724609375
3251,-0.004119873046875
3252,-0.003814697265625
3253,-0.004119873046875
3254,-0.00396728515625
3255,-0.004119873046875
3256,-0.0042724609375
3257,-0.00396728515625
3258,-0.003662109375
3259,-0.00396728515625
3260,-0.003814697265625
3261,-0.0042724609375
3262,-0.00396728515625
3263,-0.004425048828125
3264,-0.0042724609375
3265,-0.004119873046875
3266,-0.004119873046875
3267,-0.004119873046875
3268,-0.004425048828125
3269,-0.004119873046875
3270,-0.004425048828125
3271,-0.004119873046875
3272,-0.004119873046875
3273,-0.004119873046875
3274,-0.00396728515625
3275,-0.002899169921875
3276,-0.0018310546875
3277,-0.0018310546875
3278,-0.00152587890625
3279,-0.001678466796875
3280,-0.00152587890625
3281,-0.0018310546875
3282,-0.001373291015625
3283,-0.00152587890625
3284,-0.0018310546875
3285,-0.001678466796875
3286,-0.001678466796875
3287,-0.00152587890625
3288,-0.000152587890625
3289,0.00091552734375
3290,0.001068115234375
3291,0.001068115234375
3292,0.000457763671875
3293,0.00091552734375
3294,0.000762939453125
3295,0.00091552734375
3296,0.000762939453125
3297,0.001068115234375
3298,0.001220703125
3299,0.000762939453125
3300,0.00091552734375
3301,0.00091552734375
3302,0.00091552734375
3303,0.000457763671875
3304,0.000762939453125
3305,0.000457763671875
3306,0.000762939453125
3307,0.000762939453125
3308,0.001068115234375
3309,0.001068115234375
3310,0.00091552734375
3311,0.0006103515625
3312,0.00091552734375
3313,0.000762939453125
3314,0.00091552734375
3315,0.000762939453125
3316,0.00091552734375
3317,0.00091552734375
3318,0.0006103515625
3319,0.00091552734375
3320,0.00091552734375
3321,0.0006103515625
3322,0.000762939453125
3323,0.00091552734375
3324,0.000762939453125
3325,0.00091552734375
3326,0.000762939453125
3327,0.001220703125
3328,0.00091552734375
3329,0.000762939453125
3330,0.000762939453125
3331,0.0006103515625
3332,0.000762939453125
3333,0.000762939453125
3334,0.00091552734375
3335,0.00213623046875
3336,0.003204345703125
3337,0.00335693359375
3338,0.00335693359375
3339,0.003662109375
3340,0.003509521484375
3341,0.00335693359375
3342,0.00335693359375
3343,0.0030517578125
3344,0.00335693359375
3345,0.003204345703125
3346,0.003204345703125
3347,0.003204345703125
3348,0.00335693359375
3349,0.00335693359375
3350,0.0030517578125
3351,0.0030517578125
3352,0.003204345703125
3353,0.00335693359375
3354,0.00335693359375
3355,0.003204345703125
3356,0.00335693359375
3357,0.003204345703125
3358,0.003509521484375
3359,0.0030517578125
3360,0.0030517578125
3361,0.00335693359375
3362,0.003204345703125
3363,0.0030517578125
3364,0.003204345703125
3365,0.00335693359375
3366,0.003204345703125
3367,0.003509521484375
3368,0.003204345703125
3369,0.00335693359375
3370,0.003204345703125
3371,0.00335693359375
3372,0.003662109375
3373,0.003204345703125
3374,0.00335693359375
3375,0.00335693359375
3376,0.0030517578125
3377,0.00335693359375
3378,0.00335693359375
3379,0.003509521484375
3380,0.002899169921875
3381,0.0030517578125
3382,0.002899169921875
3383,0.003204345703125
3384,0.003204345703125
3385,0.0030517578125
3386,0.003204345703125
3387,0.003204345703125
3388,0.003204345703125
3389,0.00335693359375
3390,0.003204345703125
3391,0.002899169921875
3392,0.003662109375
3393,0.003204345703125
3394,0.003204345703125
3395,0.0030517578125
3396,0.003204345703125
3397,0.003509521484375
3398,0.00335693359375
3399,0.00335693359375
3400,0.00335693359375
3401,0.003509521484375
3402,0.0018310546875
3403,0.000762939453125
3404,0.00091552734375
3405,0.000762939453125
3406,0.00091552734375
3407,0.00091552734375
3408,0.000762939453125
3409,0.001373291015625
3410,0.000762939453125
3411,0.00091552734375
3412,0.00091552734375
3413,0.001068115234375
3414,0.000762939453125
3415,0.000762939453125
3416,0.001068115234375
3417,0.0006103515625
3418,0.000762939453125
3419,0.00091552734375
3420,0.00091552734375
3421,0.00091552734375
3422,0.00091552734375
3423,0.001068115234375
3424,0.000762939453125
3425,0.000762939453125
3426,0.000762939453125
3427,0.000762939453125
3428,0.000762939453125
3429,0.00091552734375
3430,0.000762939453125
3431,0.001220703125
3432,0.000762939453125
3433,0.000762939453125
3434,0.0006103515625
3435,0.001220703125
3436,0.0006103515625
3437,0.0006103515625
3438,0.000762939453125
3439,0.0006103515625
3440,0.000762939453125
3441,0.00091552734375
3442,0.000762939453125
3443,0.0006103515625
3444,0.000762939453125
3445,0.000762939453125
3446,0.001068115234375
3447,0.00091552734375
3448,0.00091552734375
3449,0.000762939453125
3450,0.001068115234375
3451,0.001068115234375
3452,0.00091552734375
3453,0.000762939453125
3454,0.000762939453125
3455,0.000457763671875
3456,0.000762939453125
3457,0.0006103515625
3458,0.000762939453125
3459,0.001068115234375
3460,0.0006103515625
3461,0.001220703125
3462,0.001983642578125
3463,0.00335693359375
3464,0.00335693359375
3465,0.00335693359375
3466,0.003509521484375
3467,0.003204345703125
3468,0.003204345703125
3469,0.003204345703125
3470,0.00335693359375
3471,0.003509521484375
3472,0.002899169921875
3473,0.0048828125
3474,0.00518798828125
3475,0.005340576171875
3476,0.00579833984375
3477,0.00579833984375
3478,0.005645751953125
3479,0.005950927734375
3480,0.005645751953125
3481,0.005645751953125
3482,0.00579833984375
3483,0.005950927734375
3484,0.006103515625
3485,0.00579833984375
3486,0.005645751953125
3487,0.00579833984375
3488,0.00579833984375
3489,0.00579833984375
3490,0.007171630859375
3491,0.007781982421875
3492,0.00823974609375
3493,0.00823974609375
3494,0.0079345703125
3495,0.00823974609375
3496,0.008087158203125
3497,0.00823974609375
3498,0.00823974609375
3499,0.00823974609375
3500,0.007781982421875
3501,0.008392333984375
3502,0.008392333984375
3503,0.00823974609375
3504,0.008087158203125
3505,0.008087158203125
3506,0.00823974609375
3507,0.00823974609375
3508,0.008087158203125
3509,0.00823974609375
3510,0.00823974609375
3511,0.0079345703125
3512,0.00762939453125
3513,0.009613037109375
3514,0.010833740234375
3515,0.01068115234375
3516,0.01068115234375
3517,0.010833740234375
3518,0.010528564453125
3519,0.01068115234375
3520,0.010833740234375
3521,0.010528564453125
3522,0.010833740234375
3523,0.010528564453125
3524,0.01068115234375
3525,0.010528564453125
3526,0.010528564453125
3527,0.01068115234375
3528,0.010986328125
3529,0.0103759765625
3530,0.01068115234375
3531,0.01068115234375
3532,0.01068115234375
3533,0.010223388671875
3534,0.010833740234375
3535,0.01068115234375
3536,0.010528564453125
3537,0.010833740234375
3538,0.010528564453125
3539,0.011749267578125
3540,0.0128173828125
3541,0.013427734375
3542,0.013427734375
3543,0.01312255859375
3544,0.013275146484375
3545,0.012969970703125
3546,0.0128173828125
3547,0.013275146484375
3548,0.0128173828125
3549,0.013427734375
3550,0.0128173828125
3551,0.01312255859375
3552,0.012969970703125
3553,0.01312255859375
3554,0.0128173828125
3555,0.012969970703125
3556,0.01312255859375
3557,0.0128173828125
3558,0.012969970703125
3559,0.012969970703125
3560,0.01312255859375
3561,0.012969970703125
3562,0.012969970703125
3563,0.012969970703125
3564,0.013275146484375
3565,0.0128173828125
3566,0.012969970703125
3567,0.01312255859375
3568,0.012969970703125
3569,0.013275146484375
3570,0.01312255859375
3571,0.012969970703125
3572,0.01312255859375
3573,0.01312255859375
3574,0.01312255859375
3575,0.013427734375
3576,0.0128173828125
3577,0.0128173828125
3578,0.01312255859375
3579,0.012969970703125
3580,0.01190185546875
3581,0.01068115234375
3582,0.010528564453125
3583,0.01068115234375
3584,0.010528564453125
3585,0.010528564453125
3586,0.010528564453125
3587,0.010833740234375
3588,0.01068115234375
3589,0.010528564453125
3590,0.01220703125
3591,0.012969970703125
3592,0.0128173828125
3593,0.012054443359375
3594,0.01068115234375
3595,0.01068115234375
3596,0.0103759765625
3597,0.010528564453125
3598,0.0103759765625
3599,0.01068115234375
3600,0.010528564453125
3601,0.01068115234375
3602,0.01068115234375
3603,0.010528564453125
3604,0.01068115234375
3605,0.01068115234375
3606,0.010528564453125
3607,0.010833740234375
3608,0.010833740234375
3609,0.01068115234375
3610,0.0103759765625
3611,0.010528564453125
3612,0.010833740234375
3613,0.010528564453125
3614,0.01068115234375
3615,0.01068115234375
3616,0.010986328125
3617,0.010528564453125
3618,0.01068115234375
3619,0.010528564453125
3620,0.01068115234375
3621,0.010986328125
3622,0.01068115234375
3623,0.010223388671875
3624,0.010833740234375
3625,0.010528564453125
3626,0.01068115234375
3627,0.010528564453125
3628,0.010528564453125
3629,0.01068115234375
3630,0.010528564453125
3631,0.01068115234375
3632,0.01068115234375
3633,0.010833740234375
3634,0.010528564453125
3635,0.010528564453125
3636,0.010833740234375
3637,0.010833740234375
3638,0.01068115234375
3639,0.010833740234375
3640,0.01068115234375
3641,0.010986328125
3642,0.010833740234375
3643,0.010528564453125
3644,0.010528564453125
3645,0.010528564453125
3646,0.0103759765625
3647,0.010528564453125
3648,0.01068115234375
3649,0.01068115234375
3650,0.010528564453125
3651,0.01068115234375
3652,0.010986328125
3653,0.0103759765625
3654,0.010528564453125
3655,0.010833740234375
3656,0.01068115234375
3657,0.010528564453125
3658,0.01068115234375
3659,0.010986328125
3660,0.0103759765625
3661,0.010833740234375
3662,0.01068115234375
3663,0.010528564453125
3664,0.01068115234375
3665,0.01068115234375
3666,0.010528564453125
3667,0.009002685546875
3668,0.008087158203125
3669,0.008392333984375
3670,0.008087158203125
3671,0.00823974609375
3672,0.008087158203125
3673,0.00823974609375
3674,0.008087158203125
3675,0.00823974609375
3676,0.008392333984375
3677,0.008087158203125
3678,0.00823974609375
3679,0.008087158203125
3680,0.007781982421875
3681,0.00823974609375
3682,0.00823974609375
3683,0.008392333984375
3684,0.008544921875
3685,0.008087158203125
3686,0.008087158203125
3687,0.008392333984375
3688,0.008392333984375
3689,0.008087158203125
3690,0.008392333984375
3691,0.008087158203125
3692,0.0079345703125
3693,0.008087158203125
3694,0.00823974609375
3695,0.008392333984375
3696,0.008392333984375
3697,0.008392333984375
3698,0.0079345703125
3699,0.00823974609375
3700,0.0079345703125
3701,0.008087158203125
3702,0.008392333984375
3703,0.008392333984375
3704,0.008087158203125
3705,0.008087158203125
3706,0.00823974609375
3707,0.008087158203125
3708,0.0079345703125
3709,0.0079345703125
3710,0.00823974609375
3711,0.00823974609375
3712,0.008544921875
3713,0.008392333984375
3714,0.008392333984375
3715,0.0079345703125
3716,0.008087158203125
3717,0.008087158203125
3718,0.008087158203125
3719,0.0079345703125
3720,0.00823974609375
3721,0.00823974609375
3722,0.008087158203125
3723,0.008087158203125
3724,0.00823974609375
3725,0.00823974609375
3726,0.0079345703125
3727,0.00823974609375
3728,0.008087158203125
3729,0.009613037109375
3730,0.0103759765625
3731,0.01068115234375
3732,0.010528564453125
3733,0.01068115234375
3734,0.010528564453125
3735,0.010833740234375
3736,0.010833740234375
3737,0.010833740234375
3738,0.010528564453125
3739,0.01068115234375
3740,0.010528564453125
3741,0.01068115234375
3742,0.010833740234375
3743,0.01068115234375
3744,0.010833740234375
3745,0.0103759765625
3746,0.010528564453125
3747,0.01068115234375
3748,0.01068115234375
3749,0.01068115234375
3750,0.01068115234375
3751,0.01068115234375
3752,0.010833740234375
3753,0.010986328125
3754,0.010833740234375
3755,0.010528564453125
3756,0.0103759765625
3757,0.01068115234375
3758,0.0103759765625
3759,0.010833740234375
3760,0.010528564453125
3761,0.010528564453125
3762,0.010833740234375
3763,0.01068115234375
3764,0.010528564453125
3765,0.010528564453125
3766,0.01068115234375
3767,0.01068115234375
3768,0.010528564453125
3769,0.010833740234375
3770,0.01068115234375
3771,0.01068115234375
3772,0.01068115234375
3773,0.01068115234375
3774,0.01068115234375
3775,0.01068115234375
3776,0.01068115234375
3777,0.010833740234375
3778,0.01068115234375
3779,0.01068115234375
3780,0.01068115234375
3781,0.01068115234375
3782,0.010528564453125
3783,0.0103759765625
3784,0.010528564453125
3785,0.010833740234375
3786,0.010833740234375
3787,0.012359619140625
3788,0.012664794921875
3789,0.012969970703125
3790,0.01312255859375
3791,0.01312255859375
3792,0.012664794921875
3793,0.0146484375
3794,0.0152587890625
3795,0.015411376953125
3796,0.01556396484375
3797,0.0152587890625
3798,0.0164794921875
3799,0.017852783203125
3800,0.01800537109375
3801,0.018310546875
3802,0.018157958984375
3803,0.01922607421875
3804,0.0201416015625
3805,0.02044677734375
3806,0.02166748046875
3807,0.0225830078125
3808,0.023040771484375
3809,0.024566650390625
3810,0.02532958984375
3811,0.02532958984375
3812,0.02685546875
3813,0.027618408203125
3814,0.027923583984375
3815,0.029296875
3816,0.03021240234375
3817,0.03143310546875
3818,0.032196044921875
3819,0.03387451171875
3820,0.03631591796875
3821,0.03753662109375
3822,0.038604736328125
3823,0.040740966796875
3824,0.043487548828125
3825,0.045623779296875
3826,0.04669189453125
3827,0.0482177734375
3828,0.050811767578125
3829,0.0518798828125
3830,0.0531005859375
3831,0.0555419921875
3832,0.056610107421875
3833,0.0567626953125
3834,0.058135986328125
3835,0.059051513671875
3836,0.05950927734375
3837,0.06072998046875
3838,0.06134033203125
3839,0.061798095703125
3840,0.0616455078125
3841,0.061492919921875
3842,0.061492919921875
3843,0.0616455078125
3844,0.0604248046875
3845,0.059661865234375
3846,0.059356689453125
3847,0.059356689453125
3848,0.05767822265625
3849,0.056915283203125
3850,0.0567626953125
3851,0.056915283203125
3852,0.05523681640625
3853,0.054473876953125
3854,0.054168701171875
3855,0.05462646484375
3856,0.054168701171875
3857,0.0531005859375
3858,0.052032470703125
3859,0.051422119140625
3860,0.0531005859375
3861,0.0537109375
3862,0.05401611328125
3863,0.054473876953125
3864,0.054473876953125
3865,0.055694580078125
3866,0.05645751953125
3867,0.05645751953125
3868,0.0579833984375
3869,0.0592041015625
3870,0.0604248046875
3871,0.061492919921875
3872,0.063018798828125
3873,0.06378173828125
3874,0.0653076171875
3875,0.067596435546875
3876,0.0689697265625
3877,0.07049560546875
3878,0.071258544921875
3879,0.0714111328125
3880,0.071563720703125
3881,0.07293701171875
3882,0.07354736328125
3883,0.07415771484375
3884,0.07232666015625
3885,0.07171630859375
3886,0.071258544921875
3887,0.0701904296875
3888,0.069122314453125
3889,0.0677490234375
3890,0.066680908203125
3891,0.0653076171875
3892,0.063018798828125
3893,0.06103515625
3894,0.057830810546875
3895,0.0555419921875
3896,0.0531005859375
3897,0.050811767578125
3898,0.048370361328125
3899,0.0457763671875
3900,0.0433349609375
3901,0.041046142578125
3902,0.038909912109375
3903,0.03662109375
3904,0.033721923828125
3905,0.03143310546875
3906,0.02899169921875
3907,0.026397705078125
3908,0.0244140625
3909,0.021820068359375
3910,0.019073486328125
3911,0.018157958984375
3912,0.01678466796875
3913,0.0140380859375
3914,0.01190185546875
3915,0.009613037109375
3916,0.00701904296875
3917,0.005645751953125
3918,0.0042724609375
3919,0.001983642578125
3920,0.001220703125
3921,-0.0006103515625
3922,-0.001373291015625
3923,-0.0030517578125
3924,-0.003814697265625
3925,-0.0054931640625
3926,-0.006103515625
3927,-0.00762939453125
3928,-0.00885009765625
3929,-0.0091552734375
3930,-0.0103759765625
3931,-0.011138916015625
3932,-0.01129150390625
3933,-0.012969970703125
3934,-0.01373291015625
3935,-0.013885498046875
3936,-0.0152587890625
3937,-0.016326904296875
3938,-0.01617431640625
3939,-0.017242431640625
3940,-0.018463134765625
3941,-0.0189208984375
3942,-0.01861572265625
3943,-0.01983642578125
3944,-0.021209716796875
3945,-0.02105712890625
3946,-0.021209716796875
3947,-0.0213623046875
3948,-0.021209716796875
3949,-0.021209716796875
3950,-0.02105712890625
3951,-0.02105712890625
3952,-0.0213623046875
3953,-0.0213623046875
3954,-0.020904541015625
3955,-0.019683837890625
3956,-0.01922607421875
3957,-0.01861572265625
3958,-0.01861572265625
3959,-0.018463134765625
3960,-0.0189208984375
3961,-0.0189208984375
3962,-0.018768310546875
3963,-0.019073486328125
3964,-0.0201416015625
3965,-0.02105712890625
3966,-0.0213623046875
3967,-0.0213623046875
3968,-0.021209716796875
3969,-0.021209716796875
3970,-0.021514892578125
3971,-0.021514892578125
3972,-0.020751953125
3973,-0.02105712890625
3974,-0.021209716796875
3975,-0.022430419921875
3976,-0.0238037109375
3977,-0.02349853515625
3978,-0.023651123046875
3979,-0.0238037109375
3980,-0.0238037109375
3981,-0.0238037109375
3982,-0.0250244140625
3983,-0.02593994140625
3984,-0.02593994140625
3985,-0.025787353515625
3986,-0.02593994140625
3987,-0.0262451171875
3988,-0.025787353515625
3989,-0.027008056640625
3990,-0.028533935546875
3991,-0.028533935546875
3992,-0.028533935546875
3993,-0.028533935546875
3994,-0.0286865234375
3995,-0.02838134765625
3996,-0.030059814453125
3997,-0.030517578125
3998,-0.030975341796875
3999,-0.030975341796875
4000,-0.030975341796875
4001,-0.03082275390625
4002,-0.03082275390625
4003,-0.03204345703125
4004,-0.033416748046875
4005,-0.0335693359375
4006,-0.03326416015625
4007,-0.033111572265625
4008,-0.0335693359375
4009,-0.033111572265625
4010,-0.03326416015625
4011,-0.033111572265625
4012,-0.0335693359375
4013,-0.0335693359375
4014,-0.03326416015625
4015,-0.033416748046875
4016,-0.03326416015625
4017,-0.033416748046875
4018,-0.03326416015625
4019,-0.033721923828125
4020,-0.03326416015625
4021,-0.03326416015625
4022,-0.0335693359375
4023,-0.0335693359375
4024,-0.03326416015625
4025,-0.033416748046875
4026,-0.033416748046875
4027,-0.031890869140625
4028,-0.0311279296875
4029,-0.03082275390625
4030,-0.030975341796875
4031,-0.03082275390625
4032,-0.031280517578125
4033,-0.031280517578125
4034,-0.030975341796875
4035,-0.03082275390625
4036,-0.030975341796875
4037,-0.03082275390625
4038,-0.030975341796875
4039,-0.03082275390625
4040,-0.03082275390625
4041,-0.0311279296875
4042,-0.029449462890625
4043,-0.028839111328125
4044,-0.028533935546875
4045,-0.028533935546875
4046,-0.02838134765625
4047,-0.0286865234375
4048,-0.028533935546875
4049,-0.028533935546875
4050,-0.028533935546875
4051,-0.02838134765625
4052,-0.02838134765625
4053,-0.02838134765625
4054,-0.02838134765625
4055,-0.02838134765625
4056,-0.02838134765625
4057,-0.028533935546875
4058,-0.028533935546875
4059,-0.028839111328125
4060,-0.0286865234375
4061,-0.0286865234375
4062,-0.02838134765625
4063,-0.027008056640625
4064,-0.02655029296875
4065,-0.026092529296875
4066,-0.026092529296875
4067,-0.02593994140625
4068,-0.025787353515625
4069,-0.0262451171875
4070,-0.0262451171875
4071,-0.02593994140625
4072,-0.026092529296875
4073,-0.026092529296875
4074,-0.02593994140625
4075,-0.02471923828125
4076,-0.023956298828125
4077,-0.023651123046875
4078,-0.0238037109375
4079,-0.0238037109375
4080,-0.023651123046875
4081,-0.0238037109375
4082,-0.02349853515625
4083,-0.023651123046875
4084,-0.023345947265625
4085,-0.023651123046875
4086,-0.023956298828125
4087,-0.023651123046875
4088,-0.02349853515625
4089,-0.023651123046875
4090,-0.023651123046875
4091,-0.02349853515625
4092,-0.02197265625
4093,-0.0213623046875
4094,-0.0213623046875
4095,-0.02105712890625
4096,-0.021209716796875
4097,-0.0213623046875
4098,-0.021514892578125
4099,-0.01983642578125
4100,-0.01922607421875
4101,-0.01861572265625
4102,-0.018768310546875
4103,-0.01861572265625
4104,-0.018768310546875
4105,-0.01861572265625
4106,-0.017547607421875
4107,-0.016326904296875
4108,-0.0164794921875
4109,-0.01617431640625
4110,-0.01617431640625
4111,-0.016326904296875
4112,-0.01617431640625
4113,-0.0164794921875
4114,-0.01617431640625
4115,-0.0164794921875
4116,-0.0164794921875
4117,-0.016326904296875
4118,-0.015869140625
4119,-0.016632080078125
4120,-0.01617431640625
4121,-0.01617431640625
4122,-0.015869140625
4123,-0.016326904296875
4124,-0.01617431640625
4125,-0.01617431640625
4126,-0.01617431640625
4127,-0.016326904296875
4128,-0.01617431640625
4129,-0.0164794921875
4130,-0.01617431640625
4131,-0.016326904296875
4132,-0.016326904296875
4133,-0.01617431640625
4134,-0.016326904296875
4135,-0.0164794921875
4136,-0.016326904296875
4137,-0.0177001953125
4138,-0.01861572265625
4139,-0.01861572265625
4140,-0.018768310546875
4141,-0.0201416015625
4142,-0.020751953125
4143,-0.021209716796875
4144,-0.0225830078125
4145,-0.024566650390625
4146,-0.02593994140625
4147,-0.0274658203125
4148,-0.02960205078125
4149,-0.0323486328125
4150,-0.0347900390625
4151,-0.0384521484375
4152,-0.041656494140625
4153,-0.0457763671875
4154,-0.048828125
4155,-0.05279541015625
4156,-0.056304931640625
4157,-0.060577392578125
4158,-0.0634765625
4159,-0.067901611328125
4160,-0.070953369140625
4161,-0.073699951171875
4162,-0.0762939453125
4163,-0.078582763671875
4164,-0.08087158203125
4165,-0.081939697265625
4166,-0.0836181640625
4167,-0.084381103515625
4168,-0.084686279296875
4169,-0.084686279296875
4170,-0.0848388671875
4171,-0.0848388671875
4172,-0.0848388671875
4173,-0.084686279296875
4174,-0.0836181640625
4175,-0.0823974609375
4176,-0.082244873046875
4177,-0.08087158203125
4178,-0.08026123046875
4179,-0.078582763671875
4180,-0.07598876953125
4181,-0.074005126953125
4182,-0.06988525390625
4183,-0.065155029296875
4184,-0.06011962890625
4185,-0.0555419921875
4186,-0.05096435546875
4187,-0.0445556640625
4188,-0.0372314453125
4189,-0.0299072265625
4190,-0.022735595703125
4191,-0.013580322265625
4192,-0.005340576171875
4193,0.00335693359375
4194,0.012969970703125
4195,0.02410888671875
4196,0.03448486328125
4197,0.045928955078125
4198,0.05767822265625
4199,0.071258544921875
4200,0.085601806640625
4201,0.100555419921875
4202,0.1165771484375
4203,0.133819580078125
4204,0.152130126953125
4205,0.1715087890625
4206,0.190887451171875
4207,0.2105712890625
4208,0.2325439453125
4209,0.254974365234375
4210,0.278778076171875
4211,0.304718017578125
4212,0.3314208984375
4213,0.360870361328125
4214,0.392303466796875
4215,0.424346923828125
4216,0.4583740234375
4217,0.495147705078125
4218,0.53314208984375
4219,0.57159423828125
4220,0.610809326171875
4221,0.6500244140625
4222,0.690460205078125
4223,0.7305908203125
4224,0.7696533203125
4225,0.808563232421875
4226,0.8465576171875
4227,0.883331298828125
4228,0.9185791015625
4229,0.953216552734375
4230,0.9844970703125
4231,1.01287841796875
4232,1.038818359375
4233,1.059417724609375
4234,1.076812744140625
4235,1.089935302734375
4236,1.09893798828125
4237,1.102447509765625
4238,1.1016845703125
4239,1.097869873046875
4240,1.080780029296875
4241,1.05987548828125
4242,1.03729248046875
4243,1.013031005859375
4244,0.985870361328125
4245,0.9552001953125
4246,0.92132568359375
4247,0.886383056640625
4248,0.849151611328125
4249,0.812225341796875
4250,0.77362060546875
4251,0.7330322265625
4252,0.69366455078125
4253,0.654144287109375
4254,0.615081787109375
4255,0.575714111328125
4256,0.536651611328125
4257,0.49774169921875
4258,0.458526611328125
4259,0.41961669921875
4260,0.380401611328125
4261,0.3411865234375
4262,0.3021240234375
4263,0.264434814453125
4264,0.22735595703125
4265,0.190582275390625
4266,0.1544189453125
4267,0.11871337890625
4268,0.084228515625
4269,0.051422119140625
4270,0.018463134765625
4271,-0.014190673828125
4272,-0.045013427734375
4273,-0.074310302734375
4274,-0.103759765625
4275,-0.132904052734375
4276,-0.1605224609375
4277,-0.186920166015625
4278,-0.2117919921875
4279,-0.235748291015625
4280,-0.258941650390625
4281,-0.28076171875
4282,-0.301513671875
4283,-0.320281982421875
4284,-0.33782958984375
4285,-0.354766845703125
4286,-0.37017822265625
4287,-0.3839111328125
4288,-0.396270751953125
4289,-0.408477783203125
4290,-0.419464111328125
4291,-0.42938232421875
4292,-0.437774658203125
4293,-0.44525146484375
4294,-0.451202392578125
4295,-0.456085205078125
4296,-0.46142578125
4297,-0.464630126953125
4298,-0.467376708984375
4299,-0.468292236328125
4300,-0.46875
4301,-0.468292236328125
4302,-0.467071533203125
4303,-0.465240478515625
4304,-0.462493896484375
4305,-0.460052490234375
4306,-0.45623779296875
4307,-0.45196533203125
4308,-0.44708251953125
4309,-0.44189453125
4310,-0.43701171875
4311,-0.43060302734375
4312,-0.424652099609375
4313,-0.41839599609375
4314,-0.411224365234375
4315,-0.404052734375
4316,-0.397796630859375
4317,-0.39031982421875
4318,-0.38238525390625
4319,-0.374603271484375
4320,-0.36712646484375
4321,-0.358123779296875
4322,-0.350494384765625
4323,-0.341949462890625
4324,-0.33203125
4325,-0.323486328125
4326,-0.3143310546875
4327,-0.305023193359375
4328,-0.29693603515625
4329,-0.287628173828125
4330,-0.2783203125
4331,-0.269775390625
4332,-0.2606201171875
4333,-0.252685546875
4334,-0.244903564453125
4335,-0.23773193359375
4336,-0.23040771484375
4337,-0.223236083984375
4338,-0.21575927734375
4339,-0.20843505859375
4340,-0.202484130859375
4341,-0.196075439453125
4342,-0.19073486328125
4343,-0.185394287109375
4344,-0.179901123046875
4345,-0.1751708984375
4346,-0.170745849609375
4347,-0.16571044921875
4348,-0.1617431640625
4349,-0.158233642578125
4350,-0.1531982421875
4351,-0.149993896484375
4352,-0.147247314453125
4353,-0.14312744140625
4354,-0.140228271484375
4355,-0.1373291015625
4356,-0.135040283203125
4357,-0.13275146484375
4358,-0.13031005859375
4359,-0.12786865234375
4360,-0.12542724609375
4361,-0.1226806640625
4362,-0.120391845703125
4363,-0.1177978515625
4364,-0.11566162109375
4365,-0.11444091796875
4366,-0.11260986328125
4367,-0.110931396484375
4368,-0.108184814453125
4369,-0.10711669921875
4370,-0.105133056640625
4371,-0.10345458984375
4372,-0.1019287109375
4373,-0.1007080078125
4374,-0.099639892578125
4375,-0.09796142578125
4376,-0.097198486328125
4377,-0.09552001953125
4378,-0.093231201171875
4379,-0.092620849609375
4380,-0.090789794921875
4381,-0.090179443359375
4382,-0.089874267578125
4383,-0.0885009765625
4384,-0.087432861328125
4385,-0.085906982421875
4386,-0.084991455078125
4387,-0.083465576171875
4388,-0.0823974609375
4389,-0.0811767578125
4390,-0.0799560546875
4391,-0.07843017578125
4392,-0.077972412109375
4393,-0.076446533203125
4394,-0.07537841796875
4395,-0.07476806640625
4396,-0.073699951171875
4397,-0.072784423828125
4398,-0.071258544921875
4399,-0.0701904296875
4400,-0.06988525390625
4401,-0.068817138671875
4402,-0.067596435546875
4403,-0.067596435546875
4404,-0.06622314453125
4405,-0.0653076171875
4406,-0.0653076171875
4407,-0.063629150390625
4408,-0.0628662109375
4409,-0.062713623046875
4410,-0.06134033203125
4411,-0.0604248046875
4412,-0.0604248046875
4413,-0.059967041015625
4414,-0.05859375
4415,-0.05828857421875
4416,-0.057830810546875
4417,-0.05767822265625
4418,-0.056304931640625
4419,-0.0555419921875
4420,-0.05523681640625
4421,-0.05523681640625
4422,-0.054168701171875
4423,-0.0531005859375
4424,-0.05279541015625
4425,-0.052947998046875
4426,-0.05279541015625
4427,-0.051727294921875
4428,-0.0506591796875
4429,-0.050811767578125
4430,-0.050811767578125
4431,-0.0506591796875
4432,-0.04913330078125
4433,-0.0482177734375
4434,-0.0482177734375
4435,-0.04791259765625
4436,-0.0482177734375
4437,-0.048065185546875
4438,-0.04638671875
4439,-0.045623779296875
4440,-0.04547119140625
4441,-0.045623779296875
4442,-0.0445556640625
4443,-0.043487548828125
4444,-0.0433349609375
4445,-0.04302978515625
4446,-0.041961669921875
4447,-0.04119873046875
4448,-0.040740966796875
4449,-0.0408935546875
4450,-0.039520263671875
4451,-0.038604736328125
4452,-0.037841796875
4453,-0.038299560546875
4454,-0.036773681640625
4455,-0.0360107421875
4456,-0.035858154296875
4457,-0.0360107421875
4458,-0.0360107421875
4459,-0.03448486328125
4460,-0.0335693359375
4461,-0.03326416015625
4462,-0.03326416015625
4463,-0.032196044921875
4464,-0.030975341796875
4465,-0.0311279296875
4466,-0.03082275390625
4467,-0.029449462890625
4468,-0.02899169921875
4469,-0.0286865234375
4470,-0.028228759765625
4471,-0.0286865234375
4472,-0.027008056640625
4473,-0.0262451171875
4474,-0.026092529296875
4475,-0.02593994140625
4476,-0.02471923828125
4477,-0.023956298828125
4478,-0.0238037109375
4479,-0.0238037109375
4480,-0.0238037109375
4481,-0.02227783203125
4482,-0.02105712890625
4483,-0.021209716796875
4484,-0.021209716796875
4485,-0.021209716796875
4486,-0.01983642578125
4487,-0.0189208984375
4488,-0.0189208984375
4489,-0.018768310546875
4490,-0.01861572265625
4491,-0.01861572265625
4492,-0.01708984375
4493,-0.016632080078125
4494,-0.016326904296875
4495,-0.0164794921875
4496,-0.01617431640625
4497,-0.01617431640625
4498,-0.014801025390625
4499,-0.014190673828125
4500,-0.014190673828125
4501,-0.013885498046875
4502,-0.013580322265625
4503,-0.01251220703125
4504,-0.011749267578125
4505,-0.0115966796875
4506,-0.01129150390625
4507,-0.01007080078125
4508,-0.009002685546875
4509,-0.00885009765625
4510,-0.0091552734375
4511,-0.0091552734375
4512,-0.00762939453125
4513,-0.0067138671875
4514,-0.0067138671875
4515,-0.00640869140625
4516,-0.00640869140625
4517,-0.00518798828125
4518,-0.00457763671875
4519,-0.0042724609375
4520,-0.00396728515625
4521,-0.003662109375
4522,-0.00244140625
4523,-0.001678466796875
4524,-0.001373291015625
4525,-0.001373291015625
4526,-0.00152587890625
4527,-0.001678466796875
4528,-0.00030517578125
4529,0.000457763671875
4530,0.00091552734375
4531,0.001220703125
4532,0.002288818359375
4533,0.0030517578125
4534,0.003509521484375
4535,0.00335693359375
4536,0.00335693359375
4537,0.005035400390625
4538,0.0054931640625
4539,0.00579833984375
4540,0.00579833984375
4541,0.006866455078125
4542,0.008087158203125
4543,0.0079345703125
4544,0.00823974609375
4545,0.00823974609375
4546,0.00823974609375
4547,0.009765625
4548,0.010528564453125
4549,0.010528564453125
4550,0.010528564453125
4551,0.010833740234375
4552,0.010833740234375
4553,0.01190185546875
4554,0.012969970703125
4555,0.012969970703125
4556,0.012969970703125
4557,0.01312255859375
4558,0.013427734375
4559,0.0146484375
4560,0.015411376953125
4561,0.015106201171875
4562,0.015716552734375
4563,0.01556396484375
4564,0.016937255859375
4565,0.01800537109375
4566,0.0177001953125
4567,0.018157958984375
4568,0.01953125
4569,0.0201416015625
4570,0.020599365234375
4571,0.020294189453125
4572,0.02166748046875
4573,0.022735595703125
4574,0.02288818359375
4575,0.022735595703125
4576,0.024261474609375
4577,0.025177001953125
4578,0.025634765625
4579,0.02532958984375
4580,0.0262451171875
4581,0.0274658203125
4582,0.027618408203125
4583,0.027618408203125
4584,0.029296875
4585,0.0299072265625
4586,0.030364990234375
4587,0.030059814453125
4588,0.03143310546875
4589,0.03204345703125
4590,0.03265380859375
4591,0.03265380859375
4592,0.03265380859375
4593,0.03387451171875
4594,0.034942626953125
4595,0.03509521484375
4596,0.0347900390625
4597,0.036468505859375
4598,0.037078857421875
4599,0.037384033203125
4600,0.037689208984375
4601,0.0390625
4602,0.039520263671875
4603,0.039825439453125
4604,0.039520263671875
4605,0.041351318359375
4606,0.04180908203125
4607,0.041961669921875
4608,0.041961669921875
4609,0.04364013671875
4610,0.044403076171875
4611,0.0445556640625
4612,0.04486083984375
4613,0.045928955078125
4614,0.046539306640625
4615,0.047149658203125
4616,0.046844482421875
4617,0.047149658203125
4618,0.0482177734375
4619,0.049285888671875
4620,0.049285888671875
4621,0.049591064453125
4622,0.0506591796875
4623,0.051727294921875
4624,0.05157470703125
4625,0.053253173828125
4626,0.053863525390625
4627,0.05462646484375
4628,0.054168701171875
4629,0.05523681640625
4630,0.056610107421875
4631,0.0567626953125
4632,0.058135986328125
4633,0.059051513671875
4634,0.0592041015625
4635,0.06072998046875
4636,0.06134033203125
4637,0.061798095703125
4638,0.0628662109375
4639,0.063934326171875
4640,0.0640869140625
4641,0.0640869140625
4642,0.0653076171875
4643,0.066070556640625
4644,0.0665283203125
4645,0.067901611328125
4646,0.069122314453125
4647,0.068817138671875
4648,0.070343017578125
4649,0.07110595703125
4650,0.07171630859375
4651,0.072784423828125
4652,0.074005126953125
4653,0.074005126953125
4654,0.074005126953125
4655,0.075225830078125
4656,0.076141357421875
4657,0.07598876953125
4658,0.07781982421875
4659,0.07843017578125
4660,0.078582763671875
4661,0.08026123046875
4662,0.08087158203125
4663,0.081024169921875
4664,0.082244873046875
4665,0.08331298828125
4666,0.0836181640625
4667,0.0848388671875
4668,0.08575439453125
4669,0.087432861328125
4670,0.0885009765625
4671,0.089874267578125
4672,0.090789794921875
4673,0.090789794921875
4674,0.092315673828125
4675,0.0933837890625
4676,0.094757080078125
4677,0.0958251953125
4678,0.0970458984375
4679,0.098419189453125
4680,0.10009765625
4681,0.10101318359375
4682,0.102081298828125
4683,0.102996826171875
4684,0.104217529296875
4685,0.105743408203125
4686,0.10711669921875
4687,0.107879638671875
4688,0.109405517578125
4689,0.11016845703125
4690,0.112152099609375
4691,0.113983154296875
4692,0.1153564453125
4693,0.116424560546875
4694,0.117645263671875
4695,0.11932373046875
4696,0.1202392578125
4697,0.121612548828125
4698,0.1226806640625
4699,0.12420654296875
4700,0.124969482421875
4701,0.126495361328125
4702,0.127410888671875
4703,0.128936767578125
4704,0.1300048828125
4705,0.1300048828125
4706,0.1318359375
4707,0.132293701171875
4708,0.133819580078125
4709,0.134735107421875
4710,0.136260986328125
4711,0.13702392578125
4712,0.137481689453125
4713,0.139007568359375
4714,0.139617919921875
4715,0.141143798828125
4716,0.1422119140625
4717,0.14373779296875
4718,0.1446533203125
4719,0.14495849609375
4720,0.14617919921875
4721,0.147247314453125
4722,0.14739990234375
4723,0.14862060546875
4724,0.1495361328125
4725,0.150146484375
4726,0.1513671875
4727,0.151824951171875
4728,0.152130126953125
4729,0.153656005859375
4730,0.1544189453125
4731,0.15472412109375
4732,0.15594482421875
4733,0.1568603515625
4734,0.15716552734375
4735,0.157318115234375
4736,0.15716552734375
4737,0.15869140625
4738,0.1593017578125
4739,0.159454345703125
4740,0.15899658203125
4741,0.159454345703125
4742,0.159454345703125
4743,0.160980224609375
4744,0.1617431640625
4745,0.1617431640625
4746,0.161895751953125
4747,0.16204833984375
4748,0.16204833984375
4749,0.161895751953125
4750,0.1617431640625
4751,0.161895751953125
4752,0.163116455078125
4753,0.164337158203125
4754,0.164337158203125
4755,0.1641845703125
4756,0.164337158203125
4757,0.16448974609375
4758,0.164031982421875
4759,0.164337158203125
4760,0.16448974609375
4761,0.164642333984375
4762,0.1641845703125
4763,0.164642333984375
4764,0.16448974609375
4765,0.16448974609375
4766,0.16448974609375
4767,0.164337158203125
4768,0.1641845703125
4769,0.164337158203125
4770,0.164642333984375
4771,0.164337158203125
4772,0.16448974609375
4773,0.164642333984375
4774,0.164337158203125
4775,0.16448974609375
4776,0.1641845703125
4777,0.164031982421875
4778,0.1641845703125
4779,0.1629638671875
4780,0.162353515625
4781,0.161895751953125
4782,0.162200927734375
4783,0.1617431640625
4784,0.160369873046875
4785,0.159454345703125
4786,0.159454345703125
4787,0.1593017578125
4788,0.157928466796875
4789,0.15716552734375
4790,0.155792236328125
4791,0.154876708984375
4792,0.15350341796875
4793,0.152587890625
4794,0.1507568359375
4795,0.14984130859375
4796,0.1483154296875
4797,0.146026611328125
4798,0.145263671875
4799,0.1434326171875
4800,0.141143798828125
4801,0.13946533203125
4802,0.1373291015625
4803,0.1361083984375
4804,0.13397216796875
4805,0.13153076171875
4806,0.12908935546875
4807,0.1263427734375
4808,0.123748779296875
4809,0.1220703125
4810,0.1190185546875
4811,0.115814208984375
4812,0.11199951171875
4813,0.109405517578125
4814,0.107421875
4815,0.10345458984375
4816,0.10009765625
4817,0.0970458984375
4818,0.093231201171875
4819,0.09002685546875
4820,0.085906982421875
4821,0.082550048828125
4822,0.0787353515625
4823,0.075225830078125
4824,0.07171630859375
4825,0.068206787109375
4826,0.06439208984375
4827,0.06103515625
4828,0.056610107421875
4829,0.053558349609375
4830,0.0494384765625
4831,0.04638671875
4832,0.041961669921875
4833,0.037841796875
4834,0.0341796875
4835,0.03021240234375
4836,0.026702880859375
4837,0.023040771484375
4838,0.018310546875
4839,0.0146484375
4840,0.01068115234375
4841,0.00701904296875
4842,0.003204345703125
4843,-0.001373291015625
4844,-0.004730224609375
4845,-0.009002685546875
4846,-0.01373291015625
4847,-0.017242431640625
4848,-0.0213623046875
4849,-0.02471923828125
4850,-0.028533935546875
4851,-0.033111572265625
4852,-0.03692626953125
4853,-0.04058837890625
4854,-0.0445556640625
4855,-0.048065185546875
4856,-0.052642822265625
4857,-0.056304931640625
4858,-0.060577392578125
4859,-0.0640869140625
4860,-0.0677490234375
4861,-0.07110595703125
4862,-0.0750732421875
4863,-0.078277587890625
4864,-0.082550048828125
4865,-0.085906982421875
4866,-0.089569091796875
4867,-0.093536376953125
4868,-0.097198486328125
4869,-0.100860595703125
4870,-0.104522705078125
4871,-0.107574462890625
4872,-0.1104736328125
4873,-0.112762451171875
4874,-0.1165771484375
4875,-0.120086669921875
4876,-0.1226806640625
4877,-0.1251220703125
4878,-0.128936767578125
4879,-0.131988525390625
4880,-0.134735107421875
4881,-0.137176513671875
4882,-0.139617919921875
4883,-0.142059326171875
4884,-0.144500732421875
4885,-0.146942138671875
4886,-0.149383544921875
4887,-0.15228271484375
4888,-0.1544189453125
4889,-0.1568603515625
4890,-0.158843994140625
4891,-0.1617431640625
4892,-0.1641845703125
4893,-0.166473388671875
4894,-0.168914794921875
4895,-0.17181396484375
4896,-0.172882080078125
4897,-0.174407958984375
4898,-0.176544189453125
4899,-0.1776123046875
4900,-0.17913818359375
4901,-0.1812744140625
4902,-0.18218994140625
4903,-0.183868408203125
4904,-0.1861572265625
4905,-0.187530517578125
4906,-0.1885986328125
4907,-0.189666748046875
4908,-0.191192626953125
4909,-0.192108154296875
4910,-0.19378662109375
4911,-0.1947021484375
4912,-0.1959228515625
4913,-0.197296142578125
4914,-0.198516845703125
4915,-0.199737548828125
4916,-0.19989013671875
4917,-0.20111083984375
4918,-0.201873779296875
4919,-0.202178955078125
4920,-0.20355224609375
4921,-0.2044677734375
4922,-0.204620361328125
4923,-0.205078125
4924,-0.205841064453125
4925,-0.207061767578125
4926,-0.207061767578125
4927,-0.206756591796875
4928,-0.207366943359375
4929,-0.208587646484375
4930,-0.2093505859375
4931,-0.209197998046875
4932,-0.209503173828125
4933,-0.2093505859375
4934,-0.209503173828125
4935,-0.2093505859375
4936,-0.2093505859375
4937,-0.2093505859375
4938,-0.2099609375
4939,-0.20965576171875
4940,-0.209503173828125
4941,-0.2093505859375
4942,-0.2093505859375
4943,-0.209503173828125
4944,-0.20965576171875
4945,-0.20965576171875
4946,-0.2093505859375
4947,-0.208282470703125
4948,-0.20721435546875
4949,-0.2069091796875
4950,-0.207061767578125
4951,-0.20721435546875
4952,-0.2069091796875
4953,-0.207061767578125
4954,-0.20721435546875
4955,-0.205841064453125
4956,-0.204925537109375
4957,-0.20477294921875
4958,-0.20477294921875
4959,-0.204620361328125
4960,-0.204620361328125
4961,-0.203399658203125
4962,-0.202178955078125
4963,-0.2020263671875
4964,-0.20172119140625
4965,-0.200653076171875
4966,-0.19989013671875
4967,-0.19989013671875
4968,-0.200042724609375
4969,-0.1983642578125
4970,-0.197296142578125
4971,-0.19744873046875
4972,-0.195770263671875
4973,-0.195159912109375
4974,-0.1947021484375
4975,-0.193634033203125
4976,-0.192413330078125
4977,-0.19256591796875
4978,-0.190887451171875
4979,-0.189971923828125
4980,-0.1898193359375
4981,-0.1885986328125
4982,-0.187835693359375
4983,-0.187225341796875
4984,-0.1861572265625
4985,-0.185394287109375
4986,-0.18463134765625
4987,-0.18402099609375
4988,-0.18280029296875
4989,-0.18280029296875
4990,-0.181427001953125
4991,-0.18035888671875
4992,-0.180206298828125
4993,-0.178985595703125
4994,-0.177764892578125
4995,-0.177764892578125
4996,-0.176544189453125
4997,-0.175628662109375
4998,-0.1751708984375
4999,-0.174102783203125
5000,-0.172882080078125
5001,-0.1727294921875
5002,-0.17120361328125
5003,-0.17059326171875
5004,-0.1702880859375
5005,-0.1690673828125
5006,-0.168304443359375
5007,-0.167694091796875
5008,-0.1666259765625
5009,-0.16571044921875
5010,-0.1641845703125
5011,-0.163116455078125
5012,-0.1629638671875
5013,-0.161895751953125
5014,-0.16082763671875
5015,-0.160369873046875
5016,-0.15899658203125
5017,-0.1580810546875
5018,-0.15838623046875
5019,-0.157012939453125
5020,-0.15625
5021,-0.1544189453125
5022,-0.15380859375
5023,-0.1531982421875
5024,-0.1519775390625
5025,-0.151214599609375
5026,-0.149688720703125
5027,-0.148773193359375
5028,-0.1483154296875
5029,-0.147247314453125
5030,-0.146331787109375
5031,-0.145721435546875
5032,-0.144500732421875
5033,-0.14373779296875
5034,-0.143585205078125
5035,-0.1422119140625
5036,-0.14129638671875
5037,-0.139617919921875
5038,-0.13885498046875
5039,-0.1385498046875
5040,-0.1373291015625
5041,-0.13641357421875
5042,-0.136260986328125
5043,-0.134429931640625
5044,-0.133819580078125
5045,-0.133209228515625
5046,-0.1324462890625
5047,-0.131378173828125
5048,-0.12969970703125
5049,-0.12908935546875
5050,-0.1287841796875
5051,-0.127410888671875
5052,-0.126495361328125
5053,-0.1251220703125
5054,-0.12420654296875
5055,-0.1239013671875
5056,-0.122528076171875
5057,-0.121612548828125
5058,-0.121612548828125
5059,-0.11993408203125
5060,-0.119171142578125
5061,-0.11749267578125
5062,-0.116729736328125
5063,-0.1165771484375
5064,-0.1153564453125
5065,-0.11444091796875
5066,-0.114288330078125
5067,-0.1129150390625
5068,-0.11199951171875
5069,-0.1116943359375
5070,-0.11016845703125
5071,-0.109405517578125
5072,-0.109405517578125
5073,-0.10955810546875
5074,-0.107879638671875
5075,-0.1068115234375
5076,-0.1068115234375
5077,-0.10498046875
5078,-0.1043701171875
5079,-0.104217529296875
5080,-0.104217529296875
5081,-0.102996826171875
5082,-0.10223388671875
5083,-0.102081298828125
5084,-0.10162353515625
5085,-0.10040283203125
5086,-0.09979248046875
5087,-0.09918212890625
5088,-0.099639892578125
5089,-0.09796142578125
5090,-0.09735107421875
5091,-0.0970458984375
5092,-0.09674072265625
5093,-0.09552001953125
5094,-0.094757080078125
5095,-0.094451904296875
5096,-0.0933837890625
5097,-0.0921630859375
5098,-0.0921630859375
5099,-0.092010498046875
5100,-0.091094970703125
5101,-0.089874267578125
5102,-0.089569091796875
5103,-0.08819580078125
5104,-0.0872802734375
5105,-0.0872802734375
5106,-0.087432861328125
5107,-0.085906982421875
5108,-0.084991455078125
5109,-0.084381103515625
5110,-0.08331298828125
5111,-0.08270263671875
5112,-0.082244873046875
5113,-0.081939697265625
5114,-0.080718994140625
5115,-0.0799560546875
5116,-0.079803466796875
5117,-0.079803466796875
5118,-0.07843017578125
5119,-0.077667236328125
5120,-0.077362060546875
5121,-0.07720947265625
5122,-0.076141357421875
5123,-0.07537841796875
5124,-0.074920654296875
5125,-0.074920654296875
5126,-0.0750732421875
5127,-0.073699951171875
5128,-0.072784423828125
5129,-0.072479248046875
5130,-0.072174072265625
5131,-0.070953369140625
5132,-0.070037841796875
5133,-0.070037841796875
5134,-0.0701904296875
5135,-0.068511962890625
5136,-0.068206787109375
5137,-0.067596435546875
5138,-0.067596435546875
5139,-0.067596435546875
5140,-0.066070556640625
5141,-0.065460205078125
5142,-0.065460205078125
5143,-0.06500244140625
5144,-0.06500244140625
5145,-0.065155029296875
5146,-0.06378173828125
5147,-0.063018798828125
5148,-0.0628662109375
5149,-0.0628662109375
5150,-0.062713623046875
5151,-0.0628662109375
5152,-0.06134033203125
5153,-0.0604248046875
5154,-0.060272216796875
5155,-0.06011962890625
5156,-0.06011962890625
5157,-0.059051513671875
5158,-0.058135986328125
5159,-0.0579833984375
5160,-0.0579833984375
5161,-0.0579833984375
5162,-0.0567626953125
5163,-0.05584716796875
5164,-0.0555419921875
5165,-0.0555419921875
5166,-0.054168701171875
5167,-0.0531005859375
5168,-0.053253173828125
5169,-0.0531005859375
5170,-0.0531005859375
5171,-0.05157470703125
5172,-0.050506591796875
5173,-0.05096435546875
5174,-0.050506591796875
5175,-0.05035400390625
5176,-0.0506591796875
5177,-0.049285888671875
5178,-0.048370361328125
5179,-0.048370361328125
5180,-0.04791259765625
5181,-0.04791259765625
5182,-0.048065185546875
5183,-0.04791259765625
5184,-0.046844482421875
5185,-0.045623779296875
5186,-0.045623779296875
5187,-0.0457763671875
5188,-0.045928955078125
5189,-0.04608154296875
5190,-0.045623779296875
5191,-0.045623779296875
5192,-0.044097900390625
5193,-0.043487548828125
5194,-0.043487548828125
5195,-0.0433349609375
5196,-0.043182373046875
5197,-0.04302978515625
5198,-0.043487548828125
5199,-0.0433349609375
5200,-0.042877197265625
5201,-0.0433349609375
5202,-0.04180908203125
5203,-0.04119873046875
5204,-0.040740966796875
5205,-0.0408935546875
5206,-0.0408935546875
5207,-0.040740966796875
5208,-0.04058837890625
5209,-0.040740966796875
5210,-0.04058837890625
5211,-0.040740966796875
5212,-0.03936767578125
5213,-0.0384521484375
5214,-0.03814697265625
5215,-0.037994384765625
5216,-0.03814697265625
5217,-0.0384521484375
5218,-0.03875732421875
5219,-0.0384521484375
5220,-0.038909912109375
5221,-0.0384521484375
5222,-0.037078857421875
5223,-0.036163330078125
5224,-0.035552978515625
5225,-0.035400390625
5226,-0.035400390625
5227,-0.03570556640625
5228,-0.03448486328125
5229,-0.033416748046875
5230,-0.03326416015625
5231,-0.03326416015625
5232,-0.03326416015625
5233,-0.033416748046875
5234,-0.033416748046875
5235,-0.031585693359375
5236,-0.0311279296875
5237,-0.030670166015625
5238,-0.030975341796875
5239,-0.030975341796875
5240,-0.0311279296875
5241,-0.03082275390625
5242,-0.02960205078125
5243,-0.028839111328125
5244,-0.028839111328125
5245,-0.028228759765625
5246,-0.0286865234375
5247,-0.028533935546875
5248,-0.02838134765625
5249,-0.0286865234375
5250,-0.028533935546875
5251,-0.02685546875
5252,-0.026397705078125
5253,-0.026397705078125
5254,-0.026092529296875
5255,-0.026092529296875
5256,-0.02593994140625
5257,-0.0262451171875
5258,-0.025787353515625
5259,-0.025787353515625
5260,-0.02593994140625
5261,-0.0262451171875
5262,-0.0262451171875
5263,-0.0262451171875
5264,-0.0262451171875
5265,-0.02593994140625
5266,-0.02593994140625
5267,-0.026092529296875
5268,-0.0262451171875
5269,-0.02593994140625
5270,-0.024566650390625
5271,-0.023651123046875
5272,-0.023651123046875
5273,-0.02349853515625
5274,-0.02349853515625
5275,-0.02349853515625
5276,-0.023651123046875
5277,-0.023651123046875
5278,-0.02349853515625
5279,-0.02349853515625
5280,-0.023956298828125
5281,-0.02349853515625
5282,-0.023651123046875
5283,-0.02349853515625
5284,-0.0238037109375
5285,-0.02349853515625
5286,-0.023651123046875
5287,-0.023651123046875
5288,-0.023956298828125
5289,-0.0238037109375
5290,-0.023651123046875
5291,-0.02349853515625
5292,-0.0238037109375
5293,-0.02349853515625
5294,-0.02349853515625
5295,-0.0238037109375
5296,-0.0238037109375
5297,-0.023651123046875
5298,-0.0238037109375
5299,-0.02349853515625
5300,-0.023651123046875
5301,-0.023956298828125
5302,-0.023651123046875
5303,-0.02349853515625
5304,-0.02410888671875
5305,-0.023651123046875
5306,-0.02349853515625
5307,-0.0238037109375
5308,-0.023651123046875
5309,-0.02349853515625
5310,-0.02349853515625
5311,-0.02349853515625
5312,-0.0238037109375
5313,-0.023651123046875
5314,-0.023651123046875
5315,-0.023651123046875
5316,-0.023193359375
5317,-0.023651123046875
5318,-0.0238037109375
5319,-0.02349853515625
5320,-0.0238037109375
