,ECG
0,-0.389404296875
1,-0.381927490234375
2,-0.37811279296875
3,-0.374755859375
4,-0.367431640625
5,-0.362701416015625
6,-0.35888671875
7,-0.350494384765625
8,-0.34637451171875
9,-0.342864990234375
10,-0.334014892578125
11,-0.32958984375
12,-0.326080322265625
13,-0.31707763671875
14,-0.312042236328125
15,-0.30731201171875
16,-0.299072265625
17,-0.29449462890625
18,-0.29022216796875
19,-0.281829833984375
20,-0.2777099609375
21,-0.274200439453125
22,-0.265655517578125
23,-0.26092529296875
24,-0.257415771484375
25,-0.250091552734375
26,-0.246124267578125
27,-0.242462158203125
28,-0.235443115234375
29,-0.231475830078125
30,-0.228118896484375
31,-0.22064208984375
32,-0.216522216796875
33,-0.213470458984375
34,-0.206146240234375
35,-0.20294189453125
36,-0.19989013671875
37,-0.193634033203125
38,-0.190277099609375
39,-0.187530517578125
40,-0.1824951171875
41,-0.180206298828125
42,-0.177764892578125
43,-0.172882080078125
44,-0.170135498046875
45,-0.1678466796875
46,-0.163421630859375
47,-0.160980224609375
48,-0.159759521484375
49,-0.15533447265625
50,-0.15380859375
51,-0.15228271484375
52,-0.148162841796875
53,-0.146484375
54,-0.144805908203125
55,-0.14068603515625
56,-0.139007568359375
57,-0.1373291015625
58,-0.1348876953125
59,-0.13336181640625
60,-0.1324462890625
61,-0.130157470703125
62,-0.128936767578125
63,-0.1275634765625
64,-0.125274658203125
65,-0.123748779296875
66,-0.1226806640625
67,-0.120697021484375
68,-0.119171142578125
69,-0.117950439453125
70,-0.115509033203125
71,-0.113983154296875
72,-0.113067626953125
73,-0.111541748046875
74,-0.111083984375
75,-0.110626220703125
76,-0.1080322265625
77,-0.107421875
78,-0.1068115234375
79,-0.10528564453125
80,-0.104522705078125
81,-0.103607177734375
82,-0.102081298828125
83,-0.101470947265625
84,-0.100555419921875
85,-0.0994873046875
86,-0.098724365234375
87,-0.09796142578125
88,-0.095977783203125
89,-0.09521484375
90,-0.0946044921875
91,-0.0933837890625
92,-0.092620849609375
93,-0.0921630859375
94,-0.0909423828125
95,-0.090179443359375
96,-0.089874267578125
97,-0.088348388671875
98,-0.087890625
99,-0.087432861328125
100,-0.0872802734375
101,-0.086669921875
102,-0.0860595703125
103,-0.0848388671875
104,-0.084228515625
105,-0.083465576171875
106,-0.08270263671875
107,-0.081787109375
108,-0.081024169921875
109,-0.080108642578125
110,-0.079193115234375
111,-0.07843017578125
112,-0.07781982421875
113,-0.077056884765625
114,-0.0762939453125
115,-0.075225830078125
116,-0.07415771484375
117,-0.07354736328125
118,-0.072784423828125
119,-0.072479248046875
120,-0.0726318359375
121,-0.071258544921875
122,-0.070648193359375
123,-0.07049560546875
124,-0.06866455078125
125,-0.068359375
126,-0.067291259765625
127,-0.06622314453125
128,-0.06591796875
129,-0.06561279296875
130,-0.0653076171875
131,-0.06439208984375
132,-0.06378173828125
133,-0.0628662109375
134,-0.06256103515625
135,-0.0616455078125
136,-0.0604248046875
137,-0.0604248046875
138,-0.060272216796875
139,-0.05859375
140,-0.058441162109375
141,-0.058135986328125
142,-0.058441162109375
143,-0.057525634765625
144,-0.05645751953125
145,-0.055694580078125
146,-0.054473876953125
147,-0.053863525390625
148,-0.053253173828125
149,-0.052490234375
150,-0.05157470703125
151,-0.051116943359375
152,-0.050811767578125
153,-0.0506591796875
154,-0.04913330078125
155,-0.04852294921875
156,-0.0482177734375
157,-0.0469970703125
158,-0.04608154296875
159,-0.045928955078125
160,-0.0457763671875
161,-0.045013427734375
162,-0.044097900390625
163,-0.043487548828125
164,-0.043182373046875
165,-0.043182373046875
166,-0.04180908203125
167,-0.04119873046875
168,-0.041046142578125
169,-0.041046142578125
170,-0.040740966796875
171,-0.040740966796875
172,-0.0408935546875
173,-0.040283203125
174,-0.039520263671875
175,-0.038299560546875
176,-0.038299560546875
177,-0.0384521484375
178,-0.03814697265625
179,-0.038604736328125
180,-0.03814697265625
181,-0.037078857421875
182,-0.03662109375
183,-0.03631591796875
184,-0.036163330078125
185,-0.036163330078125
186,-0.035552978515625
187,-0.03570556640625
188,-0.035400390625
189,-0.03448486328125
190,-0.0335693359375
191,-0.0335693359375
192,-0.033111572265625
193,-0.033416748046875
194,-0.032958984375
195,-0.03173828125
196,-0.03143310546875
197,-0.03082275390625
198,-0.0311279296875
199,-0.030670166015625
200,-0.030517578125
201,-0.029754638671875
202,-0.0286865234375
203,-0.028228759765625
204,-0.028533935546875
205,-0.027008056640625
206,-0.026702880859375
207,-0.026397705078125
208,-0.0262451171875
209,-0.026092529296875
210,-0.025787353515625
211,-0.025787353515625
212,-0.025634765625
213,-0.024871826171875
214,-0.023956298828125
215,-0.02349853515625
216,-0.023956298828125
217,-0.023651123046875
218,-0.023040771484375
219,-0.02227783203125
220,-0.0213623046875
221,-0.0213623046875
222,-0.021209716796875
223,-0.021209716796875
224,-0.020751953125
225,-0.0201416015625
226,-0.019073486328125
227,-0.0189208984375
228,-0.01861572265625
229,-0.018463134765625
230,-0.01861572265625
231,-0.01861572265625
232,-0.017547607421875
233,-0.01678466796875
234,-0.016632080078125
235,-0.016326904296875
236,-0.0164794921875
237,-0.01617431640625
238,-0.01617431640625
239,-0.016326904296875
240,-0.01617431640625
241,-0.01617431640625
242,-0.015869140625
243,-0.014801025390625
244,-0.0140380859375
245,-0.013885498046875
246,-0.013885498046875
247,-0.0140380859375
248,-0.013580322265625
249,-0.013580322265625
250,-0.01251220703125
251,-0.01190185546875
252,-0.0115966796875
253,-0.011444091796875
254,-0.011749267578125
255,-0.01129150390625
256,-0.0115966796875
257,-0.010986328125
258,-0.01007080078125
259,-0.009002685546875
260,-0.009002685546875
261,-0.00885009765625
262,-0.009002685546875
263,-0.009002685546875
264,-0.00885009765625
265,-0.009002685546875
266,-0.00885009765625
267,-0.00885009765625
268,-0.00732421875
269,-0.007171630859375
270,-0.006866455078125
271,-0.0067138671875
272,-0.006561279296875
273,-0.006561279296875
274,-0.00640869140625
275,-0.0067138671875
276,-0.006256103515625
277,-0.0067138671875
278,-0.006866455078125
279,-0.006256103515625
280,-0.006561279296875
281,-0.006561279296875
282,-0.00640869140625
283,-0.006561279296875
284,-0.0067138671875
285,-0.006561279296875
286,-0.006561279296875
287,-0.005950927734375
288,-0.005340576171875
289,-0.004425048828125
290,-0.004119873046875
291,-0.004425048828125
292,-0.003662109375
293,-0.004119873046875
294,-0.004119873046875
295,-0.00396728515625
296,-0.00335693359375
297,-0.00244140625
298,-0.00152587890625
299,-0.0018310546875
300,-0.001678466796875
301,-0.001678466796875
302,-0.00152587890625
303,-0.00152587890625
304,-0.000152587890625
305,0.00030517578125
306,0.0006103515625
307,0.00091552734375
308,0.00091552734375
309,0.001068115234375
310,0.001068115234375
311,0.001678466796875
312,0.00213623046875
313,0.00335693359375
314,0.003204345703125
315,0.00335693359375
316,0.0030517578125
317,0.003814697265625
318,0.004425048828125
319,0.0054931640625
320,0.00579833984375
321,0.005645751953125
322,0.0054931640625
323,0.00579833984375
324,0.00579833984375
325,0.0054931640625
326,0.00640869140625
327,0.00701904296875
328,0.0079345703125
329,0.00823974609375
330,0.00823974609375
331,0.007781982421875
332,0.00823974609375
333,0.00823974609375
334,0.00823974609375
335,0.0079345703125
336,0.008087158203125
337,0.0079345703125
338,0.0079345703125
339,0.008087158203125
340,0.00823974609375
341,0.008392333984375
342,0.00823974609375
343,0.0079345703125
344,0.008087158203125
345,0.00823974609375
346,0.008087158203125
347,0.00823974609375
348,0.00823974609375
349,0.008087158203125
350,0.008087158203125
351,0.00823974609375
352,0.008392333984375
353,0.008087158203125
354,0.008087158203125
355,0.0079345703125
356,0.00823974609375
357,0.008392333984375
358,0.009613037109375
359,0.0103759765625
360,0.0103759765625
361,0.01068115234375
362,0.010528564453125
363,0.010833740234375
364,0.010833740234375
365,0.01068115234375
366,0.010833740234375
367,0.0115966796875
368,0.012359619140625
369,0.01312255859375
370,0.01312255859375
371,0.012969970703125
372,0.012969970703125
373,0.01434326171875
374,0.014801025390625
375,0.015411376953125
376,0.01556396484375
377,0.015411376953125
378,0.015411376953125
379,0.016021728515625
380,0.016021728515625
381,0.016937255859375
382,0.018157958984375
383,0.0177001953125
384,0.01800537109375
385,0.017547607421875
386,0.01861572265625
387,0.01953125
388,0.02044677734375
389,0.0201416015625
390,0.020599365234375
391,0.020294189453125
392,0.02044677734375
393,0.0201416015625
394,0.020294189453125
395,0.02105712890625
396,0.022125244140625
397,0.022735595703125
398,0.02288818359375
399,0.022735595703125
400,0.023040771484375
401,0.02288818359375
402,0.02288818359375
403,0.023345947265625
404,0.023040771484375
405,0.02288818359375
406,0.0244140625
407,0.0250244140625
408,0.0250244140625
409,0.025482177734375
410,0.025482177734375
411,0.025634765625
412,0.02532958984375
413,0.02593994140625
414,0.02655029296875
415,0.027618408203125
416,0.0274658203125
417,0.027923583984375
418,0.02777099609375
419,0.0274658203125
420,0.027618408203125
421,0.02899169921875
422,0.0299072265625
423,0.030059814453125
424,0.030059814453125
425,0.03021240234375
426,0.030364990234375
427,0.03143310546875
428,0.032196044921875
429,0.03265380859375
430,0.032501220703125
431,0.032501220703125
432,0.032501220703125
433,0.03265380859375
434,0.03326416015625
435,0.0341796875
436,0.035247802734375
437,0.034942626953125
438,0.03509521484375
439,0.034942626953125
440,0.03509521484375
441,0.0347900390625
442,0.0347900390625
443,0.035247802734375
444,0.03509521484375
445,0.03509521484375
446,0.035858154296875
447,0.036163330078125
448,0.0372314453125
449,0.037841796875
450,0.037689208984375
451,0.037384033203125
452,0.037384033203125
453,0.03753662109375
454,0.037841796875
455,0.03753662109375
456,0.037689208984375
457,0.03753662109375
458,0.03753662109375
459,0.037994384765625
460,0.037689208984375
461,0.0372314453125
462,0.03753662109375
463,0.0390625
464,0.03936767578125
465,0.039825439453125
466,0.03936767578125
467,0.039520263671875
468,0.0396728515625
469,0.039825439453125
470,0.040283203125
471,0.04119873046875
472,0.041961669921875
473,0.042266845703125
474,0.04241943359375
475,0.04241943359375
476,0.042877197265625
477,0.043182373046875
478,0.044403076171875
479,0.0445556640625
480,0.044708251953125
481,0.044403076171875
482,0.044403076171875
483,0.044708251953125
484,0.0457763671875
485,0.046539306640625
486,0.046539306640625
487,0.046844482421875
488,0.0469970703125
489,0.04730224609375
490,0.04852294921875
491,0.048828125
492,0.049285888671875
493,0.049285888671875
494,0.04974365234375
495,0.049591064453125
496,0.05096435546875
497,0.051422119140625
498,0.051727294921875
499,0.052032470703125
500,0.052642822265625
501,0.053558349609375
502,0.054168701171875
503,0.054168701171875
504,0.054168701171875
505,0.054168701171875
506,0.0543212890625
507,0.05401611328125
508,0.055389404296875
509,0.056610107421875
510,0.0567626953125
511,0.056915283203125
512,0.056915283203125
513,0.058135986328125
514,0.058746337890625
515,0.059356689453125
516,0.059051513671875
517,0.06072998046875
518,0.061187744140625
519,0.0616455078125
520,0.063018798828125
521,0.0634765625
522,0.06378173828125
523,0.064239501953125
524,0.064697265625
525,0.0653076171875
526,0.066070556640625
527,0.067291259765625
528,0.06805419921875
529,0.0689697265625
530,0.069580078125
531,0.07080078125
532,0.0714111328125
533,0.072021484375
534,0.07232666015625
535,0.073699951171875
536,0.074310302734375
537,0.075225830078125
538,0.07598876953125
539,0.076751708984375
540,0.07781982421875
541,0.078582763671875
542,0.079193115234375
543,0.08026123046875
544,0.0811767578125
545,0.08209228515625
546,0.082550048828125
547,0.0836181640625
548,0.084381103515625
549,0.0848388671875
550,0.086212158203125
551,0.0860595703125
552,0.0860595703125
553,0.08758544921875
554,0.088348388671875
555,0.0885009765625
556,0.08819580078125
557,0.089111328125
558,0.090179443359375
559,0.0909423828125
560,0.091094970703125
561,0.0909423828125
562,0.09246826171875
563,0.09307861328125
564,0.0933837890625
565,0.09368896484375
566,0.093994140625
567,0.094757080078125
568,0.09552001953125
569,0.09613037109375
570,0.09552001953125
571,0.09735107421875
572,0.09765625
573,0.09796142578125
574,0.098419189453125
575,0.098724365234375
576,0.10009765625
577,0.100555419921875
578,0.100555419921875
579,0.10101318359375
580,0.1025390625
581,0.102691650390625
582,0.102996826171875
583,0.103302001953125
584,0.103607177734375
585,0.104217529296875
586,0.105438232421875
587,0.1055908203125
588,0.1055908203125
589,0.1068115234375
590,0.10772705078125
591,0.10772705078125
592,0.1080322265625
593,0.108795166015625
594,0.109405517578125
595,0.110321044921875
596,0.110321044921875
597,0.1104736328125
598,0.112152099609375
599,0.11260986328125
600,0.112762451171875
601,0.1129150390625
602,0.113677978515625
603,0.114593505859375
604,0.1153564453125
605,0.1153564453125
606,0.115509033203125
607,0.1165771484375
608,0.1177978515625
609,0.117645263671875
610,0.117950439453125
611,0.118408203125
612,0.11932373046875
613,0.120391845703125
614,0.120391845703125
615,0.1202392578125
616,0.120086669921875
617,0.120849609375
618,0.1220703125
619,0.122833251953125
620,0.123138427734375
621,0.12298583984375
622,0.122833251953125
623,0.123291015625
624,0.12420654296875
625,0.1251220703125
626,0.12542724609375
627,0.124969482421875
628,0.124969482421875
629,0.125732421875
630,0.126495361328125
631,0.127410888671875
632,0.1275634765625
633,0.1275634765625
634,0.127716064453125
635,0.1275634765625
636,0.12786865234375
637,0.12908935546875
638,0.129547119140625
639,0.129852294921875
640,0.1300048828125
641,0.1300048828125
642,0.129852294921875
643,0.129547119140625
644,0.130157470703125
645,0.130462646484375
646,0.130157470703125
647,0.129852294921875
648,0.13031005859375
649,0.1300048828125
650,0.13031005859375
651,0.130157470703125
652,0.131378173828125
653,0.131988525390625
654,0.132598876953125
655,0.132598876953125
656,0.13275146484375
657,0.132293701171875
658,0.133056640625
659,0.1324462890625
660,0.132598876953125
661,0.133819580078125
662,0.134429931640625
663,0.13458251953125
664,0.1348876953125
665,0.1348876953125
666,0.135040283203125
667,0.135345458984375
668,0.135345458984375
669,0.135040283203125
670,0.13519287109375
671,0.13519287109375
672,0.13519287109375
673,0.135040283203125
674,0.134735107421875
675,0.135040283203125
676,0.1348876953125
677,0.13519287109375
678,0.1348876953125
679,0.135345458984375
680,0.135345458984375
681,0.1348876953125
682,0.135040283203125
683,0.1348876953125
684,0.135040283203125
685,0.135040283203125
686,0.135040283203125
687,0.1348876953125
688,0.1348876953125
689,0.1348876953125
690,0.134735107421875
691,0.13519287109375
692,0.13458251953125
693,0.13458251953125
694,0.133514404296875
695,0.132904052734375
696,0.13275146484375
697,0.132598876953125
698,0.132598876953125
699,0.1324462890625
700,0.132293701171875
701,0.132598876953125
702,0.1324462890625
703,0.13092041015625
704,0.130615234375
705,0.13031005859375
706,0.130157470703125
707,0.12939453125
708,0.1287841796875
709,0.127716064453125
710,0.12786865234375
711,0.1275634765625
712,0.1263427734375
713,0.125885009765625
714,0.12542724609375
715,0.124053955078125
716,0.123138427734375
717,0.122833251953125
718,0.121612548828125
719,0.121002197265625
720,0.12054443359375
721,0.1190185546875
722,0.11871337890625
723,0.118255615234375
724,0.11688232421875
725,0.115203857421875
726,0.114288330078125
727,0.111541748046875
728,0.1104736328125
729,0.10955810546875
730,0.108642578125
731,0.107421875
732,0.106658935546875
733,0.1043701171875
734,0.103302001953125
735,0.102081298828125
736,0.099639892578125
737,0.0982666015625
738,0.09735107421875
739,0.094757080078125
740,0.09368896484375
741,0.0921630859375
742,0.0897216796875
743,0.088348388671875
744,0.087432861328125
745,0.0848388671875
746,0.08331298828125
747,0.081024169921875
748,0.077972412109375
749,0.076141357421875
750,0.074920654296875
751,0.072479248046875
752,0.07171630859375
753,0.070037841796875
754,0.0677490234375
755,0.0665283203125
756,0.0653076171875
757,0.061492919921875
758,0.05950927734375
759,0.05828857421875
760,0.055694580078125
761,0.054168701171875
762,0.0531005859375
763,0.050811767578125
764,0.048980712890625
765,0.0469970703125
766,0.0439453125
767,0.042266845703125
768,0.041046142578125
769,0.038604736328125
770,0.036773681640625
771,0.035247802734375
772,0.031890869140625
773,0.03021240234375
774,0.028839111328125
775,0.026092529296875
776,0.024871826171875
777,0.0225830078125
778,0.019378662109375
779,0.01800537109375
780,0.01708984375
781,0.012969970703125
782,0.011138916015625
783,0.009918212890625
784,0.006866455078125
785,0.00518798828125
786,0.00335693359375
787,-0.000152587890625
788,-0.001983642578125
789,-0.0042724609375
790,-0.007171630859375
791,-0.009002685546875
792,-0.009613037109375
793,-0.013885498046875
794,-0.015869140625
795,-0.01739501953125
796,-0.019989013671875
797,-0.02197265625
798,-0.0238037109375
799,-0.02685546875
800,-0.029144287109375
801,-0.030975341796875
802,-0.03448486328125
803,-0.035858154296875
804,-0.03692626953125
805,-0.040740966796875
806,-0.042724609375
807,-0.044097900390625
808,-0.046844482421875
809,-0.048370361328125
810,-0.049285888671875
811,-0.053253173828125
812,-0.054779052734375
813,-0.05645751953125
814,-0.059051513671875
815,-0.061187744140625
816,-0.0628662109375
817,-0.066070556640625
818,-0.067596435546875
819,-0.06866455078125
820,-0.071563720703125
821,-0.073394775390625
822,-0.07537841796875
823,-0.07843017578125
824,-0.07965087890625
825,-0.081024169921875
826,-0.083770751953125
827,-0.085601806640625
828,-0.08697509765625
829,-0.090484619140625
830,-0.092010498046875
831,-0.093536376953125
832,-0.09552001953125
833,-0.09735107421875
834,-0.0982666015625
835,-0.1007080078125
836,-0.102386474609375
837,-0.104827880859375
838,-0.107879638671875
839,-0.109405517578125
840,-0.1104736328125
841,-0.11138916015625
842,-0.1123046875
843,-0.113067626953125
844,-0.115509033203125
845,-0.11688232421875
846,-0.11749267578125
847,-0.11993408203125
848,-0.1214599609375
849,-0.1226806640625
850,-0.12481689453125
851,-0.125732421875
852,-0.12603759765625
853,-0.1275634765625
854,-0.128631591796875
855,-0.130157470703125
856,-0.1324462890625
857,-0.133056640625
858,-0.133514404296875
859,-0.135498046875
860,-0.136260986328125
861,-0.1373291015625
862,-0.139923095703125
863,-0.140533447265625
864,-0.14068603515625
865,-0.142364501953125
866,-0.142822265625
867,-0.1434326171875
868,-0.14495849609375
869,-0.14617919921875
870,-0.1470947265625
871,-0.148162841796875
872,-0.14892578125
873,-0.149688720703125
874,-0.1507568359375
875,-0.151519775390625
876,-0.152130126953125
877,-0.1531982421875
878,-0.153961181640625
879,-0.154571533203125
880,-0.155487060546875
881,-0.15594482421875
882,-0.157012939453125
883,-0.157928466796875
884,-0.15869140625
885,-0.15960693359375
886,-0.1605224609375
887,-0.16082763671875
888,-0.16204833984375
889,-0.16265869140625
890,-0.1629638671875
891,-0.163421630859375
892,-0.164642333984375
893,-0.165252685546875
894,-0.16510009765625
895,-0.165557861328125
896,-0.166015625
897,-0.167083740234375
898,-0.16754150390625
899,-0.167694091796875
900,-0.1678466796875
901,-0.169219970703125
902,-0.169677734375
903,-0.170135498046875
904,-0.1702880859375
905,-0.170440673828125
906,-0.1702880859375
907,-0.17181396484375
908,-0.17242431640625
909,-0.172576904296875
910,-0.17303466796875
911,-0.1727294921875
912,-0.172576904296875
913,-0.17303466796875
914,-0.172576904296875
915,-0.172882080078125
916,-0.172882080078125
917,-0.1727294921875
918,-0.172882080078125
919,-0.17425537109375
920,-0.174560546875
921,-0.17486572265625
922,-0.175323486328125
923,-0.175018310546875
924,-0.175323486328125
925,-0.175628662109375
926,-0.17486572265625
927,-0.17547607421875
928,-0.175323486328125
929,-0.175018310546875
930,-0.175323486328125
931,-0.174713134765625
932,-0.17486572265625
933,-0.1739501953125
934,-0.172882080078125
935,-0.1727294921875
936,-0.17303466796875
937,-0.17242431640625
938,-0.172882080078125
939,-0.1727294921875
940,-0.171356201171875
941,-0.171356201171875
942,-0.1702880859375
943,-0.1702880859375
944,-0.169677734375
945,-0.169219970703125
946,-0.167999267578125
947,-0.167999267578125
948,-0.167999267578125
949,-0.1678466796875
950,-0.167236328125
951,-0.166778564453125
952,-0.165863037109375
953,-0.16571044921875
954,-0.1654052734375
955,-0.1654052734375
956,-0.165557861328125
957,-0.165252685546875
958,-0.164337158203125
959,-0.16357421875
960,-0.16326904296875
961,-0.163116455078125
962,-0.16326904296875
963,-0.1629638671875
964,-0.162811279296875
965,-0.1629638671875
966,-0.1629638671875
967,-0.16326904296875
968,-0.16326904296875
969,-0.163116455078125
970,-0.16143798828125
971,-0.160980224609375
972,-0.1605224609375
973,-0.1605224609375
974,-0.16082763671875
975,-0.160675048828125
976,-0.160675048828125
977,-0.159912109375
978,-0.1593017578125
979,-0.157928466796875
980,-0.1580810546875
981,-0.15777587890625
982,-0.1580810546875
983,-0.158233642578125
984,-0.15838623046875
985,-0.15716552734375
986,-0.156402587890625
987,-0.15594482421875
988,-0.1556396484375
989,-0.1556396484375
990,-0.1556396484375
991,-0.154571533203125
992,-0.15350341796875
993,-0.15350341796875
994,-0.153350830078125
995,-0.15350341796875
996,-0.15350341796875
997,-0.1531982421875
998,-0.15289306640625
999,-0.151519775390625
1000,-0.1513671875
1001,-0.150909423828125
1002,-0.1507568359375
1003,-0.15045166015625
1004,-0.150299072265625
1005,-0.1495361328125
1006,-0.14892578125
1007,-0.14862060546875
1008,-0.14892578125
1009,-0.148468017578125
1010,-0.147857666015625
1011,-0.1470947265625
1012,-0.146026611328125
1013,-0.1458740234375
1014,-0.1458740234375
1015,-0.145721435546875
1016,-0.145263671875
1017,-0.144500732421875
1018,-0.1434326171875
1019,-0.14373779296875
1020,-0.1434326171875
1021,-0.1434326171875
1022,-0.142974853515625
1023,-0.142059326171875
1024,-0.141143798828125
1025,-0.1409912109375
1026,-0.1409912109375
1027,-0.1397705078125
1028,-0.13916015625
1029,-0.1385498046875
1030,-0.13885498046875
1031,-0.13763427734375
1032,-0.136871337890625
1033,-0.136260986328125
1034,-0.13580322265625
1035,-0.1348876953125
1036,-0.13397216796875
1037,-0.133819580078125
1038,-0.133514404296875
1039,-0.1324462890625
1040,-0.1318359375
1041,-0.131378173828125
1042,-0.129852294921875
1043,-0.12939453125
1044,-0.12939453125
1045,-0.12786865234375
1046,-0.126800537109375
1047,-0.126800537109375
1048,-0.125274658203125
1049,-0.12420654296875
1050,-0.123748779296875
1051,-0.124053955078125
1052,-0.123443603515625
1053,-0.122528076171875
1054,-0.121917724609375
1055,-0.121612548828125
1056,-0.1214599609375
1057,-0.1202392578125
1058,-0.11962890625
1059,-0.11932373046875
1060,-0.118865966796875
1061,-0.118865966796875
1062,-0.11871337890625
1063,-0.117645263671875
1064,-0.117034912109375
1065,-0.116424560546875
1066,-0.117034912109375
1067,-0.115509033203125
1068,-0.115203857421875
1069,-0.114288330078125
1070,-0.113983154296875
1071,-0.113983154296875
1072,-0.1129150390625
1073,-0.112152099609375
1074,-0.11199951171875
1075,-0.1116943359375
1076,-0.111236572265625
1077,-0.1104736328125
1078,-0.10955810546875
1079,-0.109100341796875
1080,-0.1092529296875
1081,-0.1092529296875
1082,-0.108795166015625
1083,-0.107879638671875
1084,-0.1068115234375
1085,-0.106964111328125
1086,-0.1068115234375
1087,-0.105743408203125
1088,-0.104827880859375
1089,-0.10467529296875
1090,-0.104217529296875
1091,-0.103912353515625
1092,-0.10284423828125
1093,-0.102081298828125
1094,-0.1019287109375
1095,-0.102386474609375
1096,-0.100555419921875
1097,-0.100250244140625
1098,-0.099639892578125
1099,-0.099334716796875
1100,-0.098876953125
1101,-0.09796142578125
1102,-0.097198486328125
1103,-0.0970458984375
1104,-0.0970458984375
1105,-0.0970458984375
1106,-0.096435546875
1107,-0.095672607421875
1108,-0.094757080078125
1109,-0.09429931640625
1110,-0.09490966796875
1111,-0.094451904296875
1112,-0.094451904296875
1113,-0.094451904296875
1114,-0.0933837890625
1115,-0.0927734375
1116,-0.092315673828125
1117,-0.0921630859375
1118,-0.09185791015625
1119,-0.092315673828125
1120,-0.0921630859375
1121,-0.0921630859375
1122,-0.0921630859375
1123,-0.09033203125
1124,-0.09033203125
1125,-0.0897216796875
1126,-0.089874267578125
1127,-0.0897216796875
1128,-0.089874267578125
1129,-0.087890625
1130,-0.087738037109375
1131,-0.0872802734375
1132,-0.087127685546875
1133,-0.08636474609375
1134,-0.0860595703125
1135,-0.08514404296875
1136,-0.08514404296875
1137,-0.08453369140625
1138,-0.08331298828125
1139,-0.0830078125
1140,-0.082244873046875
1141,-0.0823974609375
1142,-0.082244873046875
1143,-0.082244873046875
1144,-0.081329345703125
1145,-0.080413818359375
1146,-0.0799560546875
1147,-0.079803466796875
1148,-0.0799560546875
1149,-0.0799560546875
1150,-0.079803466796875
1151,-0.079193115234375
1152,-0.078582763671875
1153,-0.077667236328125
1154,-0.07781982421875
1155,-0.077667236328125
1156,-0.0775146484375
1157,-0.076751708984375
1158,-0.076141357421875
1159,-0.075225830078125
1160,-0.074920654296875
1161,-0.074920654296875
1162,-0.074920654296875
1163,-0.074920654296875
1164,-0.074615478515625
1165,-0.07354736328125
1166,-0.073089599609375
1167,-0.072784423828125
1168,-0.072479248046875
1169,-0.0726318359375
1170,-0.0726318359375
1171,-0.072784423828125
1172,-0.0726318359375
1173,-0.0726318359375
1174,-0.072479248046875
1175,-0.071563720703125
1176,-0.070953369140625
1177,-0.070648193359375
1178,-0.070037841796875
1179,-0.070037841796875
1180,-0.06988525390625
1181,-0.070343017578125
1182,-0.0701904296875
1183,-0.070343017578125
1184,-0.0689697265625
1185,-0.06866455078125
1186,-0.067596435546875
1187,-0.067596435546875
1188,-0.067901611328125
1189,-0.067596435546875
1190,-0.067596435546875
1191,-0.06744384765625
1192,-0.06622314453125
1193,-0.06561279296875
1194,-0.065155029296875
1195,-0.065155029296875
1196,-0.06500244140625
1197,-0.0653076171875
1198,-0.065155029296875
1199,-0.0640869140625
1200,-0.0634765625
1201,-0.0628662109375
1202,-0.062408447265625
1203,-0.062713623046875
1204,-0.0628662109375
1205,-0.06195068359375
1206,-0.061187744140625
1207,-0.060577392578125
1208,-0.06072998046875
1209,-0.060577392578125
1210,-0.060272216796875
1211,-0.059356689453125
1212,-0.05859375
1213,-0.05828857421875
1214,-0.0579833984375
1215,-0.057525634765625
1216,-0.056304931640625
1217,-0.05615234375
1218,-0.05523681640625
1219,-0.055389404296875
1220,-0.0555419921875
1221,-0.0555419921875
1222,-0.055694580078125
1223,-0.055389404296875
1224,-0.055389404296875
1225,-0.0555419921875
1226,-0.054779052734375
1227,-0.054168701171875
1228,-0.05340576171875
1229,-0.053253173828125
1230,-0.052947998046875
1231,-0.052947998046875
1232,-0.053253173828125
1233,-0.052947998046875
1234,-0.052947998046875
1235,-0.052947998046875
1236,-0.0531005859375
1237,-0.05279541015625
1238,-0.0531005859375
1239,-0.052642822265625
1240,-0.052947998046875
1241,-0.052947998046875
1242,-0.053253173828125
1243,-0.052642822265625
1244,-0.052947998046875
1245,-0.052947998046875
1246,-0.0531005859375
1247,-0.052337646484375
1248,-0.05157470703125
1249,-0.0506591796875
1250,-0.050811767578125
1251,-0.050506591796875
1252,-0.050506591796875
1253,-0.05035400390625
1254,-0.0506591796875
1255,-0.0506591796875
1256,-0.0506591796875
1257,-0.050506591796875
1258,-0.0506591796875
1259,-0.0506591796875
1260,-0.050506591796875
1261,-0.050506591796875
1262,-0.049896240234375
1263,-0.048828125
1264,-0.048370361328125
1265,-0.04791259765625
1266,-0.0482177734375
1267,-0.048370361328125
1268,-0.0482177734375
1269,-0.0482177734375
1270,-0.0482177734375
1271,-0.048065185546875
1272,-0.048065185546875
1273,-0.047149658203125
1274,-0.0457763671875
1275,-0.0457763671875
1276,-0.04547119140625
1277,-0.04547119140625
1278,-0.045623779296875
1279,-0.04547119140625
1280,-0.04547119140625
1281,-0.04547119140625
1282,-0.044403076171875
1283,-0.0439453125
1284,-0.043487548828125
1285,-0.043182373046875
1286,-0.0433349609375
1287,-0.043182373046875
1288,-0.0433349609375
1289,-0.042572021484375
1290,-0.04180908203125
1291,-0.041046142578125
1292,-0.040740966796875
1293,-0.0408935546875
1294,-0.040740966796875
1295,-0.040435791015625
1296,-0.039825439453125
1297,-0.038604736328125
1298,-0.038299560546875
1299,-0.037841796875
1300,-0.038299560546875
1301,-0.03814697265625
1302,-0.038299560546875
1303,-0.036773681640625
1304,-0.036163330078125
1305,-0.03631591796875
1306,-0.0360107421875
1307,-0.03570556640625
1308,-0.035858154296875
1309,-0.035858154296875
1310,-0.035858154296875
1311,-0.035858154296875
1312,-0.03570556640625
1313,-0.035858154296875
1314,-0.0360107421875
1315,-0.0360107421875
1316,-0.035552978515625
1317,-0.035552978515625
1318,-0.035858154296875
1319,-0.03509521484375
1320,-0.034332275390625
1321,-0.033416748046875
1322,-0.0335693359375
1323,-0.033416748046875
1324,-0.033721923828125
1325,-0.033416748046875
1326,-0.033416748046875
1327,-0.033416748046875
1328,-0.033416748046875
1329,-0.033721923828125
1330,-0.03326416015625
1331,-0.03326416015625
1332,-0.03326416015625
1333,-0.033416748046875
1334,-0.033111572265625
1335,-0.033416748046875
1336,-0.03204345703125
1337,-0.0311279296875
1338,-0.03143310546875
1339,-0.03082275390625
1340,-0.030975341796875
1341,-0.03082275390625
1342,-0.03082275390625
1343,-0.03082275390625
1344,-0.030670166015625
1345,-0.0311279296875
1346,-0.030670166015625
1347,-0.0311279296875
1348,-0.030975341796875
1349,-0.030975341796875
1350,-0.030975341796875
1351,-0.030975341796875
1352,-0.030975341796875
1353,-0.0311279296875
1354,-0.031280517578125
1355,-0.030975341796875
1356,-0.030670166015625
1357,-0.030517578125
1358,-0.030975341796875
1359,-0.0311279296875
1360,-0.029449462890625
1361,-0.029296875
1362,-0.028533935546875
1363,-0.028533935546875
1364,-0.028076171875
1365,-0.0286865234375
1366,-0.02838134765625
1367,-0.02838134765625
1368,-0.028533935546875
1369,-0.0286865234375
1370,-0.02838134765625
1371,-0.028533935546875
1372,-0.02838134765625
1373,-0.02838134765625
1374,-0.028533935546875
1375,-0.02838134765625
1376,-0.02777099609375
1377,-0.027008056640625
1378,-0.0262451171875
1379,-0.02593994140625
1380,-0.02593994140625
1381,-0.026397705078125
1382,-0.02593994140625
1383,-0.026092529296875
1384,-0.0262451171875
1385,-0.02532958984375
1386,-0.02471923828125
1387,-0.023956298828125
1388,-0.02410888671875
1389,-0.023651123046875
1390,-0.0238037109375
1391,-0.023651123046875
1392,-0.0238037109375
1393,-0.02197265625
1394,-0.02197265625
1395,-0.021209716796875
1396,-0.021514892578125
1397,-0.02105712890625
1398,-0.021209716796875
1399,-0.020904541015625
1400,-0.02105712890625
1401,-0.021514892578125
1402,-0.019989013671875
1403,-0.019378662109375
1404,-0.018768310546875
1405,-0.01861572265625
1406,-0.018463134765625
1407,-0.0189208984375
1408,-0.0189208984375
1409,-0.0189208984375
1410,-0.019073486328125
1411,-0.018768310546875
1412,-0.01861572265625
1413,-0.01861572265625
1414,-0.01861572265625
1415,-0.018768310546875
1416,-0.018768310546875
1417,-0.0189208984375
1418,-0.01861572265625
1419,-0.0189208984375
1420,-0.018768310546875
1421,-0.018768310546875
1422,-0.019073486328125
1423,-0.018768310546875
1424,-0.01861572265625
1425,-0.019073486328125
1426,-0.018768310546875
1427,-0.01861572265625
1428,-0.0189208984375
1429,-0.018768310546875
1430,-0.01861572265625
1431,-0.018310546875
1432,-0.0189208984375
1433,-0.019073486328125
1434,-0.0189208984375
1435,-0.018768310546875
1436,-0.0189208984375
1437,-0.0189208984375
1438,-0.018768310546875
1439,-0.018768310546875
1440,-0.01861572265625
1441,-0.018463134765625
1442,-0.018768310546875
1443,-0.01861572265625
1444,-0.01861572265625
1445,-0.0189208984375
1446,-0.01861572265625
1447,-0.0189208984375
1448,-0.017852783203125
1449,-0.01708984375
1450,-0.01678466796875
1451,-0.01617431640625
1452,-0.016326904296875
1453,-0.0164794921875
1454,-0.016326904296875
1455,-0.01617431640625
1456,-0.0164794921875
1457,-0.01617431640625
1458,-0.016021728515625
1459,-0.016326904296875
1460,-0.016021728515625
1461,-0.016326904296875
1462,-0.0164794921875
1463,-0.0164794921875
1464,-0.01617431640625
1465,-0.016326904296875
1466,-0.0164794921875
1467,-0.016326904296875
1468,-0.016021728515625
1469,-0.015869140625
1470,-0.0146484375
1471,-0.0140380859375
1472,-0.01373291015625
1473,-0.013885498046875
1474,-0.013580322265625
1475,-0.01373291015625
1476,-0.01373291015625
1477,-0.012359619140625
1478,-0.011749267578125
1479,-0.011749267578125
1480,-0.011444091796875
1481,-0.01129150390625
1482,-0.0115966796875
1483,-0.011138916015625
1484,-0.011138916015625
1485,-0.01129150390625
1486,-0.01129150390625
1487,-0.010833740234375
1488,-0.01007080078125
1489,-0.009002685546875
1490,-0.00885009765625
1491,-0.009307861328125
1492,-0.00885009765625
1493,-0.00885009765625
1494,-0.009002685546875
1495,-0.009002685546875
1496,-0.009613037109375
1497,-0.01007080078125
1498,-0.011138916015625
1499,-0.011138916015625
1500,-0.01129150390625
1501,-0.011444091796875
1502,-0.01129150390625
1503,-0.01129150390625
1504,-0.011444091796875
1505,-0.01129150390625
1506,-0.01129150390625
1507,-0.011444091796875
1508,-0.011444091796875
1509,-0.011138916015625
1510,-0.011444091796875
1511,-0.0115966796875
1512,-0.01129150390625
1513,-0.011444091796875
1514,-0.011444091796875
1515,-0.0115966796875
1516,-0.011138916015625
1517,-0.011444091796875
1518,-0.011444091796875
1519,-0.011138916015625
1520,-0.011444091796875
1521,-0.011138916015625
1522,-0.01129150390625
1523,-0.01129150390625
1524,-0.011444091796875
1525,-0.0115966796875
1526,-0.01129150390625
1527,-0.011138916015625
1528,-0.01129150390625
1529,-0.01129150390625
1530,-0.01129150390625
1531,-0.0115966796875
1532,-0.01129150390625
1533,-0.011749267578125
1534,-0.011749267578125
1535,-0.0115966796875
1536,-0.0115966796875
1537,-0.01129150390625
1538,-0.0115966796875
1539,-0.01129150390625
1540,-0.01129150390625
1541,-0.0115966796875
1542,-0.0115966796875
1543,-0.011444091796875
1544,-0.01129150390625
1545,-0.0115966796875
1546,-0.01129150390625
1547,-0.01129150390625
1548,-0.011444091796875
1549,-0.01129150390625
1550,-0.011444091796875
1551,-0.010986328125
1552,-0.01129150390625
1553,-0.011444091796875
1554,-0.011138916015625
1555,-0.011444091796875
1556,-0.0115966796875
1557,-0.01129150390625
1558,-0.011138916015625
1559,-0.011138916015625
1560,-0.01129150390625
1561,-0.01129150390625
1562,-0.01129150390625
1563,-0.011138916015625
1564,-0.01129150390625
1565,-0.01129150390625
1566,-0.011444091796875
1567,-0.011444091796875
1568,-0.010833740234375
1569,-0.010223388671875
1570,-0.0091552734375
1571,-0.00885009765625
1572,-0.008697509765625
1573,-0.00885009765625
1574,-0.0091552734375
1575,-0.00885009765625
1576,-0.009002685546875
1577,-0.0091552734375
1578,-0.00885009765625
1579,-0.00885009765625
1580,-0.0091552734375
1581,-0.009002685546875
1582,-0.009002685546875
1583,-0.0091552734375
1584,-0.008697509765625
1585,-0.009307861328125
1586,-0.009002685546875
1587,-0.009307861328125
1588,-0.0091552734375
1589,-0.0091552734375
1590,-0.009002685546875
1591,-0.00885009765625
1592,-0.0091552734375
1593,-0.009002685546875
1594,-0.0091552734375
1595,-0.00885009765625
1596,-0.009307861328125
1597,-0.009002685546875
1598,-0.009765625
1599,-0.010223388671875
1600,-0.011138916015625
1601,-0.011444091796875
1602,-0.0115966796875
1603,-0.011444091796875
1604,-0.011444091796875
1605,-0.011138916015625
1606,-0.011444091796875
1607,-0.0115966796875
1608,-0.01129150390625
1609,-0.0115966796875
1610,-0.011138916015625
1611,-0.01129150390625
1612,-0.011444091796875
1613,-0.01129150390625
1614,-0.011444091796875
1615,-0.0115966796875
1616,-0.011444091796875
1617,-0.011444091796875
1618,-0.0115966796875
1619,-0.01129150390625
1620,-0.01129150390625
1621,-0.011444091796875
1622,-0.011444091796875
1623,-0.01129150390625
1624,-0.011444091796875
1625,-0.010986328125
1626,-0.01129150390625
1627,-0.01129150390625
1628,-0.011444091796875
1629,-0.011444091796875
1630,-0.0115966796875
1631,-0.0115966796875
1632,-0.0115966796875
1633,-0.011138916015625
1634,-0.01129150390625
1635,-0.0115966796875
1636,-0.011749267578125
1637,-0.011444091796875
1638,-0.011444091796875
1639,-0.01129150390625
1640,-0.011444091796875
1641,-0.01129150390625
1642,-0.01129150390625
1643,-0.0115966796875
1644,-0.011444091796875
1645,-0.01129150390625
1646,-0.0115966796875
1647,-0.0115966796875
1648,-0.011444091796875
1649,-0.011444091796875
1650,-0.0115966796875
1651,-0.0115966796875
1652,-0.011138916015625
1653,-0.011444091796875
1654,-0.0115966796875
1655,-0.011444091796875
1656,-0.0115966796875
1657,-0.01190185546875
1658,-0.01129150390625
1659,-0.011444091796875
1660,-0.0115966796875
1661,-0.011138916015625
1662,-0.011444091796875
1663,-0.011444091796875
1664,-0.011749267578125
1665,-0.01129150390625
1666,-0.009765625
1667,-0.00946044921875
1668,-0.009002685546875
1669,-0.0091552734375
1670,-0.008697509765625
1671,-0.009307861328125
1672,-0.009002685546875
1673,-0.0091552734375
1674,-0.009002685546875
1675,-0.009307861328125
1676,-0.008697509765625
1677,-0.009002685546875
1678,-0.00885009765625
1679,-0.00885009765625
1680,-0.0091552734375
1681,-0.009002685546875
1682,-0.009307861328125
1683,-0.009002685546875
1684,-0.0079345703125
1685,-0.00701904296875
1686,-0.006866455078125
1687,-0.00640869140625
1688,-0.0067138671875
1689,-0.006866455078125
1690,-0.006256103515625
1691,-0.00640869140625
1692,-0.006561279296875
1693,-0.00640869140625
1694,-0.0067138671875
1695,-0.00640869140625
1696,-0.0067138671875
1697,-0.00640869140625
1698,-0.006256103515625
1699,-0.00640869140625
1700,-0.006256103515625
1701,-0.006256103515625
1702,-0.006866455078125
1703,-0.0067138671875
1704,-0.00640869140625
1705,-0.006561279296875
1706,-0.00640869140625
1707,-0.006561279296875
1708,-0.006561279296875
1709,-0.00640869140625
1710,-0.006561279296875
1711,-0.00640869140625
1712,-0.0067138671875
1713,-0.0067138671875
1714,-0.0067138671875
1715,-0.006561279296875
1716,-0.00640869140625
1717,-0.006561279296875
1718,-0.00640869140625
1719,-0.006256103515625
1720,-0.0067138671875
1721,-0.006256103515625
1722,-0.006561279296875
1723,-0.006561279296875
1724,-0.005950927734375
1725,-0.00518798828125
1726,-0.0042724609375
1727,-0.0042724609375
1728,-0.0042724609375
1729,-0.00396728515625
1730,-0.00396728515625
1731,-0.00396728515625
1732,-0.00396728515625
1733,-0.004119873046875
1734,-0.00396728515625
1735,-0.003814697265625
1736,-0.0042724609375
1737,-0.003662109375
1738,-0.004119873046875
1739,-0.00396728515625
1740,-0.004119873046875
1741,-0.00396728515625
1742,-0.00396728515625
1743,-0.003814697265625
1744,-0.00396728515625
1745,-0.003814697265625
1746,-0.004119873046875
1747,-0.00396728515625
1748,-0.00396728515625
1749,-0.00396728515625
1750,-0.004119873046875
1751,-0.004119873046875
1752,-0.003814697265625
1753,-0.00396728515625
1754,-0.003814697265625
1755,-0.00396728515625
1756,-0.0042724609375
1757,-0.00396728515625
1758,-0.00396728515625
1759,-0.004119873046875
1760,-0.003814697265625
1761,-0.00396728515625
1762,-0.004119873046875
1763,-0.00396728515625
1764,-0.004119873046875
1765,-0.0042724609375
1766,-0.00396728515625
1767,-0.004119873046875
1768,-0.00396728515625
1769,-0.00396728515625
1770,-0.00396728515625
1771,-0.00396728515625
1772,-0.004119873046875
1773,-0.004119873046875
1774,-0.003814697265625
1775,-0.003814697265625
1776,-0.0042724609375
1777,-0.003814697265625
1778,-0.003814697265625
1779,-0.004119873046875
1780,-0.0042724609375
1781,-0.00396728515625
1782,-0.00396728515625
1783,-0.00396728515625
1784,-0.004119873046875
1785,-0.004119873046875
1786,-0.003662109375
1787,-0.003204345703125
1788,-0.00274658203125
1789,-0.0018310546875
1790,-0.001678466796875
1791,-0.001678466796875
1792,-0.001678466796875
1793,-0.00152587890625
1794,-0.001678466796875
1795,-0.00152587890625
1796,-0.00152587890625
1797,-0.00152587890625
1798,-0.001678466796875
1799,-0.00152587890625
1800,-0.00152587890625
1801,-0.0018310546875
1802,-0.000762939453125
1803,-0.000152587890625
1804,0.000457763671875
1805,0.001068115234375
1806,0.000762939453125
1807,0.00091552734375
1808,0.000762939453125
1809,0.001068115234375
1810,0.000762939453125
1811,0.001068115234375
1812,0.000762939453125
1813,0.000762939453125
1814,0.000762939453125
1815,0.00091552734375
1816,0.00091552734375
1817,0.000762939453125
1818,0.000762939453125
1819,0.00091552734375
1820,0.000762939453125
1821,0.000762939453125
1822,0.000762939453125
1823,0.000762939453125
1824,0.000762939453125
1825,0.000762939453125
1826,0.00091552734375
1827,0.001068115234375
1828,0.000762939453125
1829,0.000457763671875
1830,0.00091552734375
1831,0.00091552734375
1832,0.00091552734375
1833,0.0006103515625
1834,0.00091552734375
1835,0.00091552734375
1836,0.00091552734375
1837,0.00091552734375
1838,0.0006103515625
1839,0.0006103515625
1840,0.0006103515625
1841,0.00091552734375
1842,0.0006103515625
1843,0.000762939453125
1844,0.0006103515625
1845,0.00091552734375
1846,0.000762939453125
1847,0.000762939453125
1848,0.001068115234375
1849,0.000762939453125
1850,0.000762939453125
1851,0.00091552734375
1852,0.000762939453125
1853,0.00091552734375
1854,0.000457763671875
1855,0.001068115234375
1856,0.0006103515625
1857,0.00091552734375
1858,0.00091552734375
1859,0.00091552734375
1860,0.000762939453125
1861,-0.00030517578125
1862,-0.001220703125
1863,-0.001068115234375
1864,-0.00152587890625
1865,-0.001220703125
1866,-0.001373291015625
1867,-0.001678466796875
1868,-0.00152587890625
1869,-0.00152587890625
1870,-0.00152587890625
1871,-0.00152587890625
1872,-0.001678466796875
1873,-0.00152587890625
1874,-0.001678466796875
1875,-0.00152587890625
1876,-0.00152587890625
1877,-0.00152587890625
1878,-0.0018310546875
1879,-0.002899169921875
1880,-0.003662109375
1881,-0.003814697265625
1882,-0.00396728515625
1883,-0.00396728515625
1884,-0.004119873046875
1885,-0.004119873046875
1886,-0.0042724609375
1887,-0.004119873046875
1888,-0.004119873046875
1889,-0.004119873046875
1890,-0.00396728515625
1891,-0.00396728515625
1892,-0.00396728515625
1893,-0.00396728515625
1894,-0.00396728515625
1895,-0.00396728515625
1896,-0.0042724609375
1897,-0.004119873046875
1898,-0.00335693359375
1899,-0.002288818359375
1900,-0.001983642578125
1901,-0.001220703125
1902,-0.00152587890625
1903,-0.0018310546875
1904,-0.00152587890625
1905,-0.00152587890625
1906,-0.001373291015625
1907,-0.001678466796875
1908,-0.0018310546875
1909,-0.0018310546875
1910,-0.001678466796875
1911,-0.00152587890625
1912,-0.00152587890625
1913,-0.00152587890625
1914,-0.001220703125
1915,-0.001678466796875
1916,-0.001373291015625
1917,-0.00152587890625
1918,-0.001678466796875
1919,-0.00152587890625
1920,-0.00152587890625
1921,-0.00152587890625
1922,-0.00152587890625
1923,-0.001373291015625
1924,-0.00152587890625
1925,-0.00152587890625
1926,-0.001678466796875
1927,-0.001678466796875
1928,-0.00152587890625
1929,-0.001678466796875
1930,-0.00152587890625
1931,-0.001373291015625
1932,-0.001678466796875
1933,-0.00152587890625
1934,-0.001678466796875
1935,-0.001373291015625
1936,-0.001678466796875
1937,-0.001678466796875
1938,-0.00152587890625
1939,-0.001678466796875
1940,-0.00152587890625
1941,-0.001678466796875
1942,-0.001678466796875
1943,-0.001678466796875
1944,-0.00152587890625
1945,-0.00152587890625
1946,-0.001678466796875
1947,-0.001983642578125
1948,-0.00152587890625
1949,-0.00152587890625
1950,-0.001220703125
1951,-0.001983642578125
1952,-0.00152587890625
1953,-0.001373291015625
1954,-0.001678466796875
1955,-0.001068115234375
1956,-0.00030517578125
1957,0.0006103515625
1958,0.00091552734375
1959,0.001068115234375
1960,0.00091552734375
1961,0.000762939453125
1962,0.001068115234375
1963,0.00091552734375
1964,0.001373291015625
1965,0.0018310546875
1966,0.00335693359375
1967,0.00335693359375
1968,0.003204345703125
1969,0.003204345703125
1970,0.003204345703125
1971,0.003204345703125
1972,0.003204345703125
1973,0.003204345703125
1974,0.00335693359375
1975,0.003204345703125
1976,0.0030517578125
1977,0.00335693359375
1978,0.003204345703125
1979,0.003204345703125
1980,0.003204345703125
1981,0.0030517578125
1982,0.003204345703125
1983,0.003204345703125
1984,0.003204345703125
1985,0.003662109375
1986,0.00335693359375
1987,0.003204345703125
1988,0.003204345703125
1989,0.002899169921875
1990,0.003204345703125
1991,0.00335693359375
1992,0.003509521484375
1993,0.00335693359375
1994,0.002899169921875
1995,0.003204345703125
1996,0.00335693359375
1997,0.0030517578125
1998,0.003204345703125
1999,0.0030517578125
2000,0.0030517578125
2001,0.00335693359375
2002,0.003509521484375
2003,0.00335693359375
2004,0.003204345703125
2005,0.003662109375
2006,0.003204345703125
2007,0.00335693359375
2008,0.0030517578125
2009,0.003662109375
2010,0.003509521484375
2011,0.003204345703125
2012,0.00335693359375
2013,0.00335693359375
2014,0.003204345703125
2015,0.003204345703125
2016,0.003509521484375
2017,0.00335693359375
2018,0.003204345703125
2019,0.0030517578125
2020,0.003204345703125
2021,0.003204345703125
2022,0.0030517578125
2023,0.0030517578125
2024,0.003204345703125
2025,0.00335693359375
2026,0.003204345703125
2027,0.003204345703125
2028,0.0030517578125
2029,0.003204345703125
2030,0.00335693359375
2031,0.002899169921875
2032,0.0030517578125
2033,0.003662109375
2034,0.003509521484375
2035,0.003509521484375
2036,0.003204345703125
2037,0.003204345703125
2038,0.00335693359375
2039,0.003204345703125
2040,0.0030517578125
2041,0.0030517578125
2042,0.003509521484375
2043,0.00335693359375
2044,0.003204345703125
2045,0.003509521484375
2046,0.003204345703125
2047,0.00335693359375
2048,0.003204345703125
2049,0.0030517578125
2050,0.003204345703125
2051,0.003662109375
2052,0.00335693359375
2053,0.003204345703125
2054,0.003509521484375
2055,0.0030517578125
2056,0.003204345703125
2057,0.002899169921875
2058,0.003204345703125
2059,0.00335693359375
2060,0.003509521484375
2061,0.0030517578125
2062,0.00335693359375
2063,0.003509521484375
2064,0.0030517578125
2065,0.003204345703125
2066,0.003204345703125
2067,0.002899169921875
2068,0.003509521484375
2069,0.003204345703125
2070,0.003204345703125
2071,0.003509521484375
2072,0.003204345703125
2073,0.0030517578125
2074,0.0030517578125
2075,0.00335693359375
2076,0.003509521484375
2077,0.003204345703125
2078,0.003204345703125
2079,0.003509521484375
2080,0.0030517578125
2081,0.00335693359375
2082,0.003509521484375
2083,0.0030517578125
2084,0.003204345703125
2085,0.00335693359375
2086,0.003204345703125
2087,0.003509521484375
2088,0.003204345703125
2089,0.003204345703125
2090,0.00396728515625
2091,0.00457763671875
2092,0.005035400390625
2093,0.006103515625
2094,0.00579833984375
2095,0.005645751953125
2096,0.00579833984375
2097,0.005340576171875
2098,0.0054931640625
2099,0.00579833984375
2100,0.005645751953125
2101,0.006103515625
2102,0.005950927734375
2103,0.00579833984375
2104,0.00579833984375
2105,0.005645751953125
2106,0.006103515625
2107,0.006866455078125
2108,0.0079345703125
2109,0.008087158203125
2110,0.00823974609375
2111,0.00823974609375
2112,0.00823974609375
2113,0.00823974609375
2114,0.008087158203125
2115,0.00823974609375
2116,0.00823974609375
2117,0.008087158203125
2118,0.008544921875
2119,0.008544921875
2120,0.00823974609375
2121,0.00823974609375
2122,0.00823974609375
2123,0.008087158203125
2124,0.00823974609375
2125,0.00823974609375
2126,0.0079345703125
2127,0.00823974609375
2128,0.008087158203125
2129,0.0079345703125
2130,0.0079345703125
2131,0.008392333984375
2132,0.008087158203125
2133,0.00762939453125
2134,0.008087158203125
2135,0.00823974609375
2136,0.00762939453125
2137,0.008392333984375
2138,0.0079345703125
2139,0.00823974609375
2140,0.009613037109375
2141,0.010223388671875
2142,0.0103759765625
2143,0.010528564453125
2144,0.010528564453125
2145,0.0103759765625
2146,0.010833740234375
2147,0.010528564453125
2148,0.01068115234375
2149,0.010833740234375
2150,0.010528564453125
2151,0.010833740234375
2152,0.010528564453125
2153,0.01007080078125
2154,0.00946044921875
2155,0.00823974609375
2156,0.00823974609375
2157,0.00823974609375
2158,0.008087158203125
2159,0.00823974609375
2160,0.008392333984375
2161,0.00823974609375
2162,0.00823974609375
2163,0.008392333984375
2164,0.008544921875
2165,0.00823974609375
2166,0.008087158203125
2167,0.008087158203125
2168,0.008087158203125
2169,0.008392333984375
2170,0.008087158203125
2171,0.008392333984375
2172,0.008087158203125
2173,0.008087158203125
2174,0.0079345703125
2175,0.0079345703125
2176,0.008087158203125
2177,0.008087158203125
2178,0.00823974609375
2179,0.008087158203125
2180,0.007781982421875
2181,0.008544921875
2182,0.008087158203125
2183,0.008087158203125
2184,0.008087158203125
2185,0.008087158203125
2186,0.00823974609375
2187,0.0079345703125
2188,0.008087158203125
2189,0.00885009765625
2190,0.00946044921875
2191,0.010528564453125
2192,0.010528564453125
2193,0.010528564453125
2194,0.01068115234375
2195,0.010528564453125
2196,0.01068115234375
2197,0.010833740234375
2198,0.01068115234375
2199,0.01068115234375
2200,0.01068115234375
2201,0.01068115234375
2202,0.01068115234375
2203,0.010528564453125
2204,0.010528564453125
2205,0.01068115234375
2206,0.01220703125
2207,0.01251220703125
2208,0.0128173828125
2209,0.0128173828125
2210,0.0128173828125
2211,0.0128173828125
2212,0.013275146484375
2213,0.012969970703125
2214,0.01312255859375
2215,0.012664794921875
2216,0.01312255859375
2217,0.012969970703125
2218,0.01312255859375
2219,0.0128173828125
2220,0.012969970703125
2221,0.01312255859375
2222,0.01312255859375
2223,0.013275146484375
2224,0.013275146484375
2225,0.01312255859375
2226,0.01312255859375
2227,0.011749267578125
2228,0.010833740234375
2229,0.010986328125
2230,0.010833740234375
2231,0.0103759765625
2232,0.010833740234375
2233,0.01068115234375
2234,0.01068115234375
2235,0.01068115234375
2236,0.0103759765625
2237,0.011138916015625
2238,0.010833740234375
2239,0.010833740234375
2240,0.010528564453125
2241,0.01068115234375
2242,0.01068115234375
2243,0.0103759765625
2244,0.010833740234375
2245,0.010528564453125
2246,0.010528564453125
2247,0.01068115234375
2248,0.010986328125
2249,0.01068115234375
2250,0.010528564453125
2251,0.010833740234375
2252,0.010833740234375
2253,0.0103759765625
2254,0.010528564453125
2255,0.01068115234375
2256,0.010833740234375
2257,0.010528564453125
2258,0.01068115234375
2259,0.010528564453125
2260,0.0103759765625
2261,0.010528564453125
2262,0.010528564453125
2263,0.010528564453125
2264,0.010528564453125
2265,0.010833740234375
2266,0.010528564453125
2267,0.01068115234375
2268,0.01068115234375
2269,0.010528564453125
2270,0.011138916015625
2271,0.010528564453125
2272,0.010528564453125
2273,0.0103759765625
2274,0.010833740234375
2275,0.01068115234375
2276,0.010528564453125
2277,0.01068115234375
2278,0.0103759765625
2279,0.010528564453125
2280,0.0103759765625
2281,0.01068115234375
2282,0.01068115234375
2283,0.01068115234375
2284,0.0103759765625
2285,0.01068115234375
2286,0.010528564453125
2287,0.01068115234375
2288,0.010223388671875
2289,0.010833740234375
2290,0.0103759765625
2291,0.0103759765625
2292,0.01068115234375
2293,0.01068115234375
2294,0.010833740234375
2295,0.010528564453125
2296,0.01068115234375
2297,0.010833740234375
2298,0.010223388671875
2299,0.010986328125
2300,0.01068115234375
2301,0.010528564453125
2302,0.01068115234375
2303,0.01068115234375
2304,0.01068115234375
2305,0.01068115234375
2306,0.010528564453125
2307,0.010833740234375
2308,0.010528564453125
2309,0.01129150390625
2310,0.011749267578125
2311,0.012664794921875
2312,0.0128173828125
2313,0.012969970703125
2314,0.01312255859375
2315,0.013275146484375
2316,0.013427734375
2317,0.01312255859375
2318,0.012969970703125
2319,0.013275146484375
2320,0.012664794921875
2321,0.01373291015625
2322,0.014190673828125
2323,0.015411376953125
2324,0.01556396484375
2325,0.01556396484375
2326,0.015411376953125
2327,0.015411376953125
2328,0.01556396484375
2329,0.015411376953125
2330,0.015411376953125
2331,0.01556396484375
2332,0.01708984375
2333,0.017547607421875
2334,0.0177001953125
2335,0.0177001953125
2336,0.0177001953125
2337,0.0177001953125
2338,0.01800537109375
2339,0.01800537109375
2340,0.01800537109375
2341,0.0189208984375
2342,0.01983642578125
2343,0.0201416015625
2344,0.02044677734375
2345,0.02044677734375
2346,0.020294189453125
2347,0.021820068359375
2348,0.02227783203125
2349,0.022735595703125
2350,0.02288818359375
2351,0.022735595703125
2352,0.02288818359375
2353,0.0244140625
2354,0.024871826171875
2355,0.0250244140625
2356,0.025482177734375
2357,0.025482177734375
2358,0.02532958984375
2359,0.02685546875
2360,0.02716064453125
2361,0.027618408203125
2362,0.028076171875
2363,0.0274658203125
2364,0.02777099609375
2365,0.029296875
2366,0.02960205078125
2367,0.03021240234375
2368,0.030517578125
2369,0.03082275390625
2370,0.03143310546875
2371,0.032501220703125
2372,0.032501220703125
2373,0.03265380859375
2374,0.034027099609375
2375,0.034637451171875
2376,0.0347900390625
2377,0.036468505859375
2378,0.037078857421875
2379,0.037078857421875
2380,0.038909912109375
2381,0.039520263671875
2382,0.039520263671875
2383,0.04119873046875
2384,0.0421142578125
2385,0.043182373046875
2386,0.044097900390625
2387,0.045013427734375
2388,0.0457763671875
2389,0.0482177734375
2390,0.048828125
2391,0.048980712890625
2392,0.050811767578125
2393,0.05126953125
2394,0.051727294921875
2395,0.0531005859375
2396,0.0537109375
2397,0.054168701171875
2398,0.054473876953125
2399,0.054779052734375
2400,0.05584716796875
2401,0.05645751953125
2402,0.05706787109375
2403,0.0567626953125
2404,0.058135986328125
2405,0.058441162109375
2406,0.059051513671875
2407,0.059356689453125
2408,0.0592041015625
2409,0.059356689453125
2410,0.05950927734375
2411,0.059356689453125
2412,0.059051513671875
2413,0.05889892578125
2414,0.05889892578125
2415,0.0592041015625
2416,0.059051513671875
2417,0.059051513671875
2418,0.059051513671875
2419,0.058746337890625
2420,0.05950927734375
2421,0.059356689453125
2422,0.057830810546875
2423,0.057220458984375
2424,0.05706787109375
2425,0.05645751953125
2426,0.056915283203125
2427,0.0567626953125
2428,0.0555419921875
2429,0.054779052734375
2430,0.054473876953125
2431,0.054168701171875
2432,0.0543212890625
2433,0.0543212890625
2434,0.054473876953125
2435,0.0543212890625
2436,0.054473876953125
2437,0.0543212890625
2438,0.054168701171875
2439,0.054168701171875
2440,0.054168701171875
2441,0.0543212890625
2442,0.05401611328125
2443,0.0543212890625
2444,0.0543212890625
2445,0.054473876953125
2446,0.05584716796875
2447,0.056304931640625
2448,0.05645751953125
2449,0.0567626953125
2450,0.057220458984375
2451,0.058135986328125
2452,0.05889892578125
2453,0.059814453125
2454,0.060577392578125
2455,0.06134033203125
2456,0.062408447265625
2457,0.063018798828125
2458,0.065460205078125
2459,0.06591796875
2460,0.066375732421875
2461,0.067901611328125
2462,0.068359375
2463,0.068817138671875
2464,0.070343017578125
2465,0.07110595703125
2466,0.071258544921875
2467,0.071563720703125
2468,0.072021484375
2469,0.072784423828125
2470,0.073699951171875
2471,0.0738525390625
2472,0.0738525390625
2473,0.073699951171875
2474,0.0732421875
2475,0.0726318359375
2476,0.071868896484375
2477,0.07171630859375
2478,0.0714111328125
2479,0.0701904296875
2480,0.069580078125
2481,0.069122314453125
2482,0.0677490234375
2483,0.067291259765625
2484,0.066986083984375
2485,0.0653076171875
2486,0.064239501953125
2487,0.0628662109375
2488,0.06072998046875
2489,0.059661865234375
2490,0.059356689453125
2491,0.057830810546875
2492,0.05645751953125
2493,0.0555419921875
2494,0.0531005859375
2495,0.052337646484375
2496,0.0518798828125
2497,0.050506591796875
2498,0.049591064453125
2499,0.048370361328125
2500,0.045928955078125
2501,0.044708251953125
2502,0.043182373046875
2503,0.040740966796875
2504,0.0396728515625
2505,0.039215087890625
2506,0.034637451171875
2507,0.032806396484375
2508,0.031585693359375
2509,0.02899169921875
2510,0.027618408203125
2511,0.02655029296875
2512,0.02410888671875
2513,0.022735595703125
2514,0.021514892578125
2515,0.02044677734375
2516,0.01983642578125
2517,0.0189208984375
2518,0.016937255859375
2519,0.015716552734375
2520,0.0146484375
2521,0.0115966796875
2522,0.010986328125
2523,0.010986328125
2524,0.009307861328125
2525,0.008087158203125
2526,0.00701904296875
2527,0.005950927734375
2528,0.005340576171875
2529,0.0042724609375
2530,0.00335693359375
2531,0.00274658203125
2532,0.0018310546875
2533,0.000762939453125
2534,0.000152587890625
2535,-0.0006103515625
2536,-0.001373291015625
2537,-0.001983642578125
2538,-0.0030517578125
2539,-0.003814697265625
2540,-0.00457763671875
2541,-0.005645751953125
2542,-0.00640869140625
2543,-0.007171630859375
2544,-0.008087158203125
2545,-0.008697509765625
2546,-0.00885009765625
2547,-0.009002685546875
2548,-0.010528564453125
2549,-0.010986328125
2550,-0.01129150390625
2551,-0.011444091796875
2552,-0.011749267578125
2553,-0.0128173828125
2554,-0.013427734375
2555,-0.013580322265625
2556,-0.013885498046875
2557,-0.013580322265625
2558,-0.014495849609375
2559,-0.015106201171875
2560,-0.01617431640625
2561,-0.016021728515625
2562,-0.016326904296875
2563,-0.01617431640625
2564,-0.016326904296875
2565,-0.01617431640625
2566,-0.016326904296875
2567,-0.0164794921875
2568,-0.016326904296875
2569,-0.015106201171875
2570,-0.0146484375
2571,-0.0140380859375
2572,-0.01373291015625
2573,-0.013885498046875
2574,-0.013580322265625
2575,-0.012054443359375
2576,-0.011749267578125
2577,-0.01190185546875
2578,-0.01129150390625
2579,-0.0115966796875
2580,-0.01129150390625
2581,-0.01129150390625
2582,-0.01129150390625
2583,-0.0115966796875
2584,-0.009918212890625
2585,-0.00946044921875
2586,-0.009002685546875
2587,-0.00885009765625
2588,-0.009307861328125
2589,-0.00885009765625
2590,-0.0091552734375
2591,-0.0091552734375
2592,-0.008697509765625
2593,-0.009002685546875
2594,-0.008697509765625
2595,-0.0091552734375
2596,-0.00885009765625
2597,-0.00885009765625
2598,-0.009002685546875
2599,-0.009002685546875
2600,-0.00885009765625
2601,-0.0091552734375
2602,-0.00885009765625
2603,-0.008697509765625
2604,-0.009002685546875
2605,-0.00885009765625
2606,-0.00885009765625
2607,-0.00885009765625
2608,-0.009002685546875
2609,-0.009002685546875
2610,-0.009002685546875
2611,-0.009002685546875
2612,-0.00885009765625
2613,-0.008697509765625
2614,-0.009002685546875
2615,-0.009002685546875
2616,-0.009002685546875
2617,-0.00946044921875
2618,-0.009002685546875
2619,-0.00885009765625
2620,-0.01007080078125
2621,-0.010833740234375
2622,-0.01129150390625
2623,-0.011444091796875
2624,-0.011444091796875
2625,-0.010986328125
2626,-0.011138916015625
2627,-0.0115966796875
2628,-0.0115966796875
2629,-0.01129150390625
2630,-0.0115966796875
2631,-0.01129150390625
2632,-0.0128173828125
2633,-0.013275146484375
2634,-0.013580322265625
2635,-0.01373291015625
2636,-0.01373291015625
2637,-0.01373291015625
2638,-0.01373291015625
2639,-0.013885498046875
2640,-0.013885498046875
2641,-0.015106201171875
2642,-0.015716552734375
2643,-0.015869140625
2644,-0.016326904296875
2645,-0.01617431640625
2646,-0.016326904296875
2647,-0.01800537109375
2648,-0.01800537109375
2649,-0.01861572265625
2650,-0.01861572265625
2651,-0.018768310546875
2652,-0.019073486328125
2653,-0.01861572265625
2654,-0.019378662109375
2655,-0.020294189453125
2656,-0.02105712890625
2657,-0.02105712890625
2658,-0.021209716796875
2659,-0.0213623046875
2660,-0.021209716796875
2661,-0.021514892578125
2662,-0.021209716796875
2663,-0.020904541015625
2664,-0.02166748046875
2665,-0.02105712890625
2666,-0.0213623046875
2667,-0.021209716796875
2668,-0.022430419921875
2669,-0.02288818359375
2670,-0.023651123046875
2671,-0.0238037109375
2672,-0.0238037109375
2673,-0.02349853515625
2674,-0.0238037109375
2675,-0.0238037109375
2676,-0.023651123046875
2677,-0.0238037109375
2678,-0.0238037109375
2679,-0.0238037109375
2680,-0.0238037109375
2681,-0.023651123046875
2682,-0.0238037109375
2683,-0.0238037109375
2684,-0.0238037109375
2685,-0.023651123046875
2686,-0.02349853515625
2687,-0.02349853515625
2688,-0.0238037109375
2689,-0.02349853515625
2690,-0.02349853515625
2691,-0.0238037109375
2692,-0.02349853515625
2693,-0.02349853515625
2694,-0.023651123046875
2695,-0.0238037109375
2696,-0.023651123046875
2697,-0.023651123046875
2698,-0.023345947265625
2699,-0.023651123046875
2700,-0.02410888671875
2701,-0.023651123046875
2702,-0.0238037109375
2703,-0.023651123046875
2704,-0.023651123046875
2705,-0.02349853515625
2706,-0.023651123046875
2707,-0.022125244140625
2708,-0.02197265625
2709,-0.020904541015625
2710,-0.02105712890625
2711,-0.021209716796875
2712,-0.02105712890625
2713,-0.020904541015625
2714,-0.02105712890625
2715,-0.021209716796875
2716,-0.021209716796875
2717,-0.021209716796875
2718,-0.02105712890625
2719,-0.021209716796875
2720,-0.02105712890625
2721,-0.02105712890625
2722,-0.02105712890625
2723,-0.020904541015625
2724,-0.02105712890625
2725,-0.0213623046875
2726,-0.0213623046875
2727,-0.021514892578125
2728,-0.02105712890625
2729,-0.021209716796875
2730,-0.0213623046875
2731,-0.0213623046875
2732,-0.0213623046875
2733,-0.02105712890625
2734,-0.021209716796875
2735,-0.0213623046875
2736,-0.021209716796875
2737,-0.02105712890625
2738,-0.02105712890625
2739,-0.02105712890625
2740,-0.021209716796875
2741,-0.020599365234375
2742,-0.019683837890625
2743,-0.0189208984375
2744,-0.0189208984375
2745,-0.0189208984375
2746,-0.01861572265625
2747,-0.018768310546875
2748,-0.0189208984375
2749,-0.01861572265625
2750,-0.0189208984375
2751,-0.0189208984375
2752,-0.01861572265625
2753,-0.019073486328125
2754,-0.0189208984375
2755,-0.018768310546875
2756,-0.018463134765625
2757,-0.01739501953125
2758,-0.016632080078125
2759,-0.016326904296875
2760,-0.01617431640625
2761,-0.01617431640625
2762,-0.016326904296875
2763,-0.01617431640625
2764,-0.01617431640625
2765,-0.01617431640625
2766,-0.016326904296875
2767,-0.01617431640625
2768,-0.016326904296875
2769,-0.016326904296875
2770,-0.016326904296875
2771,-0.016326904296875
2772,-0.016021728515625
2773,-0.01617431640625
2774,-0.01617431640625
2775,-0.016326904296875
2776,-0.015106201171875
2777,-0.01434326171875
2778,-0.01434326171875
2779,-0.0140380859375
2780,-0.013885498046875
2781,-0.013885498046875
2782,-0.013580322265625
2783,-0.01373291015625
2784,-0.0140380859375
2785,-0.013580322265625
2786,-0.01373291015625
2787,-0.014190673828125
2788,-0.013885498046875
2789,-0.013275146484375
2790,-0.012359619140625
2791,-0.011749267578125
2792,-0.01129150390625
2793,-0.011444091796875
2794,-0.0115966796875
2795,-0.01129150390625
2796,-0.011138916015625
2797,-0.011444091796875
2798,-0.011444091796875
2799,-0.01129150390625
2800,-0.011444091796875
2801,-0.01068115234375
2802,-0.0103759765625
2803,-0.0091552734375
2804,-0.009002685546875
2805,-0.0091552734375
2806,-0.009002685546875
2807,-0.009002685546875
2808,-0.00885009765625
2809,-0.007781982421875
2810,-0.00732421875
2811,-0.0067138671875
2812,-0.00640869140625
2813,-0.006256103515625
2814,-0.006256103515625
2815,-0.00640869140625
2816,-0.0067138671875
2817,-0.0067138671875
2818,-0.00640869140625
2819,-0.00640869140625
2820,-0.006561279296875
2821,-0.00640869140625
2822,-0.0054931640625
2823,-0.0048828125
2824,-0.0042724609375
2825,-0.004119873046875
2826,-0.004119873046875
2827,-0.00396728515625
2828,-0.00396728515625
2829,-0.004119873046875
2830,-0.004119873046875
2831,-0.004119873046875
2832,-0.00396728515625
2833,-0.00396728515625
2834,-0.004119873046875
2835,-0.004119873046875
2836,-0.00396728515625
2837,-0.003814697265625
2838,-0.003814697265625
2839,-0.003814697265625
2840,-0.00396728515625
2841,-0.004119873046875
2842,-0.003814697265625
2843,-0.004119873046875
2844,-0.003662109375
2845,-0.004119873046875
2846,-0.003814697265625
2847,-0.004119873046875
2848,-0.004119873046875
2849,-0.0042724609375
2850,-0.00396728515625
2851,-0.0054931640625
2852,-0.00579833984375
2853,-0.00640869140625
2854,-0.006256103515625
2855,-0.00701904296875
2856,-0.007781982421875
2857,-0.00885009765625
2858,-0.009765625
2859,-0.0103759765625
2860,-0.010833740234375
2861,-0.01220703125
2862,-0.0128173828125
2863,-0.015411376953125
2864,-0.016326904296875
2865,-0.01739501953125
2866,-0.019989013671875
2867,-0.0213623046875
2868,-0.022430419921875
2869,-0.026092529296875
2870,-0.027923583984375
2871,-0.029449462890625
2872,-0.0335693359375
2873,-0.035247802734375
2874,-0.03692626953125
2875,-0.0408935546875
2876,-0.043487548828125
2877,-0.045623779296875
2878,-0.050506591796875
2879,-0.052642822265625
2880,-0.054168701171875
2881,-0.058135986328125
2882,-0.059814453125
2883,-0.061187744140625
2884,-0.065155029296875
2885,-0.067138671875
2886,-0.068511962890625
2887,-0.071258544921875
2888,-0.0726318359375
2889,-0.073699951171875
2890,-0.07598876953125
2891,-0.076751708984375
2892,-0.077056884765625
2893,-0.0775146484375
2894,-0.077972412109375
2895,-0.078887939453125
2896,-0.079345703125
2897,-0.080108642578125
2898,-0.0799560546875
2899,-0.079803466796875
2900,-0.079803466796875
2901,-0.0799560546875
2902,-0.07965087890625
2903,-0.079345703125
2904,-0.0787353515625
2905,-0.0775146484375
2906,-0.0775146484375
2907,-0.0775146484375
2908,-0.077362060546875
2909,-0.077362060546875
2910,-0.07720947265625
2911,-0.076141357421875
2912,-0.07568359375
2913,-0.074920654296875
2914,-0.0738525390625
2915,-0.072479248046875
2916,-0.0714111328125
2917,-0.068817138671875
2918,-0.06683349609375
2919,-0.06500244140625
2920,-0.061798095703125
2921,-0.05950927734375
2922,-0.057830810546875
2923,-0.05279541015625
2924,-0.04974365234375
2925,-0.046844482421875
2926,-0.0408935546875
2927,-0.03753662109375
2928,-0.03448486328125
2929,-0.027313232421875
2930,-0.023651123046875
2931,-0.019989013671875
2932,-0.012664794921875
2933,-0.008087158203125
2934,-0.004119873046875
2935,0.004119873046875
2936,0.008697509765625
2937,0.01312255859375
2938,0.0225830078125
2939,0.02777099609375
2940,0.03265380859375
2941,0.0421142578125
2942,0.04791259765625
2943,0.053253173828125
2944,0.065155029296875
2945,0.071868896484375
2946,0.078277587890625
2947,0.0933837890625
2948,0.10162353515625
2949,0.109405517578125
2950,0.1263427734375
2951,0.135650634765625
2952,0.1434326171875
2953,0.160064697265625
2954,0.170135498046875
2955,0.17913818359375
2956,0.199737548828125
2957,0.21087646484375
2958,0.22125244140625
2959,0.2447509765625
2960,0.257720947265625
2961,0.269317626953125
2962,0.29510498046875
2963,0.3094482421875
2964,0.323028564453125
2965,0.3533935546875
2966,0.370330810546875
2967,0.3851318359375
2968,0.418243408203125
2969,0.436859130859375
2970,0.453643798828125
2971,0.490570068359375
2972,0.509796142578125
2973,0.526885986328125
2974,0.56488037109375
2975,0.58563232421875
2976,0.603485107421875
2977,0.64300537109375
2978,0.663909912109375
2979,0.68206787109375
2980,0.7208251953125
2981,0.7415771484375
2982,0.760040283203125
2983,0.7977294921875
2984,0.8172607421875
2985,0.8343505859375
2986,0.8697509765625
2987,0.88775634765625
2988,0.902862548828125
2989,0.935211181640625
2990,0.95001220703125
2991,0.962677001953125
2992,0.986480712890625
2993,0.997772216796875
2994,1.007080078125
2995,1.024017333984375
2996,1.0302734375
2997,1.035003662109375
2998,1.04278564453125
2999,1.045074462890625
3000,1.046295166015625
3001,1.045684814453125
3002,1.043701171875
3003,1.041717529296875
3004,1.034088134765625
3005,1.028900146484375
3006,1.0235595703125
3007,1.0101318359375
3008,1.00189208984375
3009,0.994110107421875
3010,0.974884033203125
3011,0.963134765625
3012,0.953216552734375
3013,0.929718017578125
3014,0.91644287109375
3015,0.9039306640625
3016,0.87615966796875
3017,0.860443115234375
3018,0.84686279296875
3019,0.81756591796875
3020,0.80108642578125
3021,0.786590576171875
3022,0.7537841796875
3023,0.736236572265625
3024,0.720977783203125
3025,0.689239501953125
3026,0.67169189453125
3027,0.6561279296875
3028,0.621795654296875
3029,0.60394287109375
3030,0.58807373046875
3031,0.555267333984375
3032,0.5377197265625
3033,0.5218505859375
3034,0.487823486328125
3035,0.469970703125
3036,0.454864501953125
3037,0.422821044921875
3038,0.4058837890625
3039,0.391387939453125
3040,0.3594970703125
3041,0.3424072265625
3042,0.327606201171875
3043,0.2972412109375
3044,0.2813720703125
3045,0.267791748046875
3046,0.23681640625
3047,0.22125244140625
3048,0.207977294921875
3049,0.179443359375
3050,0.1641845703125
3051,0.150146484375
3052,0.12237548828125
3053,0.10772705078125
3054,0.09521484375
3055,0.068206787109375
3056,0.0537109375
3057,0.04150390625
3058,0.014801025390625
3059,0.000457763671875
3060,-0.012054443359375
3061,-0.037689208984375
3062,-0.050506591796875
3063,-0.06256103515625
3064,-0.08697509765625
3065,-0.099945068359375
3066,-0.111541748046875
3067,-0.135498046875
3068,-0.14801025390625
3069,-0.15869140625
3070,-0.180816650390625
3071,-0.19195556640625
3072,-0.20172119140625
3073,-0.22125244140625
3074,-0.232086181640625
3075,-0.2410888671875
3076,-0.25909423828125
3077,-0.268402099609375
3078,-0.276336669921875
3079,-0.29327392578125
3080,-0.3021240234375
3081,-0.30914306640625
3082,-0.324249267578125
3083,-0.331573486328125
3084,-0.337677001953125
3085,-0.349884033203125
3086,-0.3564453125
3087,-0.3619384765625
3088,-0.372772216796875
3089,-0.3790283203125
3090,-0.384368896484375
3091,-0.393524169921875
3092,-0.39825439453125
3093,-0.40252685546875
3094,-0.4107666015625
3095,-0.415191650390625
3096,-0.418548583984375
3097,-0.424041748046875
3098,-0.427093505859375
3099,-0.429534912109375
3100,-0.4327392578125
3101,-0.4345703125
3102,-0.435943603515625
3103,-0.43792724609375
3104,-0.438995361328125
3105,-0.43914794921875
3106,-0.440673828125
3107,-0.440521240234375
3108,-0.440521240234375
3109,-0.439300537109375
3110,-0.4388427734375
3111,-0.437774658203125
3112,-0.435638427734375
3113,-0.4345703125
3114,-0.433349609375
3115,-0.42938232421875
3116,-0.427703857421875
3117,-0.425872802734375
3118,-0.422210693359375
3119,-0.41961669921875
3120,-0.41748046875
3121,-0.412139892578125
3122,-0.41015625
3123,-0.40740966796875
3124,-0.401153564453125
3125,-0.39794921875
3126,-0.39581298828125
3127,-0.388946533203125
3128,-0.385589599609375
3129,-0.381927490234375
3130,-0.3759765625
3131,-0.372314453125
3132,-0.369720458984375
3133,-0.362548828125
3134,-0.358428955078125
3135,-0.35491943359375
3136,-0.3460693359375
3137,-0.341796875
3138,-0.338134765625
3139,-0.330810546875
3140,-0.326690673828125
3141,-0.32196044921875
3142,-0.313568115234375
3143,-0.308990478515625
3144,-0.305023193359375
3145,-0.296478271484375
3146,-0.291900634765625
3147,-0.28778076171875
3148,-0.279693603515625
3149,-0.275726318359375
3150,-0.272064208984375
3151,-0.26336669921875
3152,-0.258636474609375
3153,-0.254974365234375
3154,-0.2459716796875
3155,-0.241546630859375
3156,-0.238037109375
3157,-0.23040771484375
3158,-0.226593017578125
3159,-0.223236083984375
3160,-0.215606689453125
3161,-0.211944580078125
3162,-0.208587646484375
3163,-0.202484130859375
3164,-0.198974609375
3165,-0.196075439453125
3166,-0.189971923828125
3167,-0.186920166015625
3168,-0.183563232421875
3169,-0.178375244140625
3170,-0.175323486328125
3171,-0.17303466796875
3172,-0.168304443359375
3173,-0.165557861328125
3174,-0.16357421875
3175,-0.1580810546875
3176,-0.1556396484375
3177,-0.1531982421875
3178,-0.149993896484375
3179,-0.147857666015625
3180,-0.146026611328125
3181,-0.142974853515625
3182,-0.140228271484375
3183,-0.1385498046875
3184,-0.13519287109375
3185,-0.133514404296875
3186,-0.132293701171875
3187,-0.128631591796875
3188,-0.126953125
3189,-0.1251220703125
3190,-0.1226806640625
3191,-0.121612548828125
3192,-0.12054443359375
3193,-0.11810302734375
3194,-0.1165771484375
3195,-0.1153564453125
3196,-0.11322021484375
3197,-0.11138916015625
3198,-0.1104736328125
3199,-0.1080322265625
3200,-0.107421875
3201,-0.106964111328125
3202,-0.105438232421875
3203,-0.103912353515625
3204,-0.10284423828125
3205,-0.1007080078125
3206,-0.09979248046875
3207,-0.099639892578125
3208,-0.09765625
3209,-0.096893310546875
3210,-0.0958251953125
3211,-0.09490966796875
3212,-0.093994140625
3213,-0.09307861328125
3214,-0.0909423828125
3215,-0.09033203125
3216,-0.0897216796875
3217,-0.088348388671875
3218,-0.087890625
3219,-0.087432861328125
3220,-0.0860595703125
3221,-0.08514404296875
3222,-0.084686279296875
3223,-0.083465576171875
3224,-0.082855224609375
3225,-0.082244873046875
3226,-0.081024169921875
3227,-0.08026123046875
3228,-0.07965087890625
3229,-0.078277587890625
3230,-0.078125
3231,-0.07781982421875
3232,-0.076141357421875
3233,-0.075531005859375
3234,-0.07537841796875
3235,-0.0738525390625
3236,-0.0732421875
3237,-0.072784423828125
3238,-0.072174072265625
3239,-0.072021484375
3240,-0.071258544921875
3241,-0.070343017578125
3242,-0.06988525390625
3243,-0.068817138671875
3244,-0.0677490234375
3245,-0.0677490234375
3246,-0.067596435546875
3247,-0.066375732421875
3248,-0.066070556640625
3249,-0.0653076171875
3250,-0.0640869140625
3251,-0.063018798828125
3252,-0.063018798828125
3253,-0.062255859375
3254,-0.062103271484375
3255,-0.061187744140625
3256,-0.0604248046875
3257,-0.060577392578125
3258,-0.060272216796875
3259,-0.05859375
3260,-0.05828857421875
3261,-0.057830810546875
3262,-0.05767822265625
3263,-0.05767822265625
3264,-0.05767822265625
3265,-0.05645751953125
3266,-0.055694580078125
3267,-0.0555419921875
3268,-0.05523681640625
3269,-0.054473876953125
3270,-0.05401611328125
3271,-0.0531005859375
3272,-0.052947998046875
3273,-0.05279541015625
3274,-0.05279541015625
3275,-0.052337646484375
3276,-0.0518798828125
3277,-0.0506591796875
3278,-0.0506591796875
3279,-0.0506591796875
3280,-0.050506591796875
3281,-0.04974365234375
3282,-0.04913330078125
3283,-0.048370361328125
3284,-0.048065185546875
3285,-0.04791259765625
3286,-0.048065185546875
3287,-0.047149658203125
3288,-0.04638671875
3289,-0.0457763671875
3290,-0.045928955078125
3291,-0.0457763671875
3292,-0.04547119140625
3293,-0.045166015625
3294,-0.0445556640625
3295,-0.04364013671875
3296,-0.043182373046875
3297,-0.0433349609375
3298,-0.043182373046875
3299,-0.04241943359375
3300,-0.04180908203125
3301,-0.0408935546875
3302,-0.041046142578125
3303,-0.04058837890625
3304,-0.0408935546875
3305,-0.040435791015625
3306,-0.0390625
3307,-0.0384521484375
3308,-0.038299560546875
3309,-0.03814697265625
3310,-0.03814697265625
3311,-0.03814697265625
3312,-0.03814697265625
3313,-0.03692626953125
3314,-0.03631591796875
3315,-0.036163330078125
3316,-0.035858154296875
3317,-0.03570556640625
3318,-0.0360107421875
3319,-0.034637451171875
3320,-0.03387451171875
3321,-0.033721923828125
3322,-0.0335693359375
3323,-0.03326416015625
3324,-0.033416748046875
3325,-0.03326416015625
3326,-0.03265380859375
3327,-0.031890869140625
3328,-0.0311279296875
3329,-0.0311279296875
3330,-0.03082275390625
3331,-0.030975341796875
3332,-0.030670166015625
3333,-0.030975341796875
3334,-0.0311279296875
3335,-0.03021240234375
3336,-0.029754638671875
3337,-0.028533935546875
3338,-0.02899169921875
3339,-0.0286865234375
3340,-0.028533935546875
3341,-0.028533935546875
3342,-0.0286865234375
3343,-0.0286865234375
3344,-0.0286865234375
3345,-0.02838134765625
3346,-0.028076171875
3347,-0.027923583984375
3348,-0.02716064453125
3349,-0.026397705078125
3350,-0.026092529296875
3351,-0.02593994140625
3352,-0.025634765625
3353,-0.026092529296875
3354,-0.02593994140625
3355,-0.026092529296875
3356,-0.02532958984375
3357,-0.025177001953125
3358,-0.0238037109375
3359,-0.023651123046875
3360,-0.02349853515625
3361,-0.023651123046875
3362,-0.02349853515625
3363,-0.02349853515625
3364,-0.02349853515625
3365,-0.023193359375
3366,-0.02227783203125
3367,-0.0213623046875
3368,-0.020904541015625
3369,-0.021209716796875
3370,-0.021209716796875
3371,-0.021209716796875
3372,-0.02105712890625
3373,-0.0213623046875
3374,-0.020294189453125
3375,-0.01983642578125
3376,-0.0189208984375
3377,-0.01922607421875
3378,-0.01861572265625
3379,-0.018768310546875
3380,-0.0189208984375
3381,-0.0189208984375
3382,-0.01861572265625
3383,-0.018768310546875
3384,-0.018768310546875
3385,-0.01861572265625
3386,-0.018463134765625
3387,-0.017242431640625
3388,-0.016326904296875
3389,-0.0164794921875
3390,-0.016326904296875
3391,-0.016326904296875
3392,-0.01617431640625
3393,-0.016326904296875
3394,-0.01617431640625
3395,-0.01617431640625
3396,-0.016326904296875
3397,-0.01434326171875
3398,-0.01434326171875
3399,-0.01373291015625
3400,-0.013885498046875
3401,-0.013580322265625
3402,-0.0140380859375
3403,-0.01373291015625
3404,-0.01373291015625
3405,-0.01373291015625
3406,-0.012664794921875
3407,-0.01190185546875
3408,-0.01190185546875
3409,-0.011444091796875
3410,-0.011444091796875
3411,-0.011444091796875
3412,-0.011749267578125
3413,-0.0115966796875
3414,-0.011444091796875
3415,-0.011444091796875
3416,-0.011444091796875
3417,-0.01129150390625
3418,-0.010223388671875
3419,-0.009307861328125
3420,-0.009002685546875
3421,-0.009002685546875
3422,-0.009002685546875
3423,-0.0091552734375
3424,-0.00885009765625
3425,-0.009002685546875
3426,-0.009002685546875
3427,-0.0079345703125
3428,-0.00701904296875
3429,-0.0067138671875
3430,-0.0067138671875
3431,-0.0067138671875
3432,-0.006561279296875
3433,-0.00640869140625
3434,-0.005950927734375
3435,-0.00518798828125
3436,-0.0042724609375
3437,-0.004119873046875
3438,-0.003814697265625
3439,-0.004119873046875
3440,-0.003509521484375
3441,-0.00244140625
3442,-0.001678466796875
3443,-0.0018310546875
3444,-0.0018310546875
3445,-0.001678466796875
3446,-0.0018310546875
3447,-0.00152587890625
3448,-0.0006103515625
3449,0.0006103515625
3450,0.000457763671875
3451,0.000762939453125
3452,0.000762939453125
3453,0.00091552734375
3454,0.0006103515625
3455,0.000762939453125
3456,0.0006103515625
3457,0.0018310546875
3458,0.00274658203125
3459,0.0030517578125
3460,0.00335693359375
3461,0.00335693359375
3462,0.00335693359375
3463,0.003204345703125
3464,0.00396728515625
3465,0.0042724609375
3466,0.005950927734375
3467,0.005340576171875
3468,0.005340576171875
3469,0.006103515625
3470,0.005645751953125
3471,0.0054931640625
3472,0.007171630859375
3473,0.00762939453125
3474,0.007781982421875
3475,0.0079345703125
3476,0.008087158203125
3477,0.00823974609375
3478,0.00946044921875
3479,0.01007080078125
3480,0.010223388671875
3481,0.0103759765625
3482,0.01068115234375
3483,0.010528564453125
3484,0.01068115234375
3485,0.011138916015625
3486,0.01190185546875
3487,0.012969970703125
3488,0.01312255859375
3489,0.012664794921875
3490,0.01312255859375
3491,0.0140380859375
3492,0.0146484375
3493,0.015106201171875
3494,0.015411376953125
3495,0.0152587890625
3496,0.015716552734375
3497,0.015411376953125
3498,0.01556396484375
3499,0.01708984375
3500,0.017242431640625
3501,0.0177001953125
3502,0.018157958984375
3503,0.018310546875
3504,0.017852783203125
3505,0.018157958984375
3506,0.01800537109375
3507,0.017852783203125
3508,0.01922607421875
3509,0.0201416015625
3510,0.019989013671875
3511,0.02044677734375
3512,0.020294189453125
3513,0.02044677734375
3514,0.020294189453125
3515,0.020599365234375
3516,0.02044677734375
3517,0.02044677734375
3518,0.020904541015625
3519,0.022125244140625
3520,0.02227783203125
3521,0.02288818359375
3522,0.02288818359375
3523,0.023193359375
3524,0.022735595703125
3525,0.022735595703125
3526,0.023956298828125
3527,0.024566650390625
3528,0.024871826171875
3529,0.02532958984375
3530,0.025177001953125
3531,0.02532958984375
3532,0.02532958984375
3533,0.025634765625
3534,0.026702880859375
3535,0.027618408203125
3536,0.02777099609375
3537,0.027618408203125
3538,0.027618408203125
3539,0.028076171875
3540,0.027618408203125
3541,0.02899169921875
3542,0.02960205078125
3543,0.029754638671875
3544,0.03021240234375
3545,0.0299072265625
3546,0.030364990234375
3547,0.03021240234375
3548,0.030975341796875
3549,0.031585693359375
3550,0.0323486328125
3551,0.032958984375
3552,0.032501220703125
3553,0.032501220703125
3554,0.03265380859375
3555,0.032501220703125
3556,0.034027099609375
3557,0.03448486328125
3558,0.034942626953125
3559,0.03509521484375
3560,0.035247802734375
3561,0.035247802734375
3562,0.03509521484375
3563,0.035400390625
3564,0.03509521484375
3565,0.03509521484375
3566,0.0360107421875
3567,0.036163330078125
3568,0.037384033203125
3569,0.0372314453125
3570,0.0372314453125
3571,0.03753662109375
3572,0.03753662109375
3573,0.03753662109375
3574,0.037841796875
3575,0.038299560546875
3576,0.039215087890625
3577,0.039825439453125
3578,0.0396728515625
3579,0.039520263671875
3580,0.03936767578125
3581,0.040283203125
3582,0.041046142578125
3583,0.04180908203125
3584,0.0421142578125
3585,0.041961669921875
3586,0.041961669921875
3587,0.042724609375
3588,0.043487548828125
3589,0.0445556640625
3590,0.0445556640625
3591,0.0445556640625
3592,0.0445556640625
3593,0.04486083984375
3594,0.044403076171875
3595,0.045623779296875
3596,0.04669189453125
3597,0.0469970703125
3598,0.046844482421875
3599,0.04669189453125
3600,0.047454833984375
3601,0.048065185546875
3602,0.048828125
3603,0.049285888671875
3604,0.049285888671875
3605,0.050201416015625
3606,0.050506591796875
3607,0.051727294921875
3608,0.051727294921875
3609,0.0518798828125
3610,0.0518798828125
3611,0.052490234375
3612,0.05340576171875
3613,0.05401611328125
3614,0.05401611328125
3615,0.0543212890625
3616,0.05584716796875
3617,0.056304931640625
3618,0.056610107421875
3619,0.05706787109375
3620,0.057373046875
3621,0.0579833984375
3622,0.0592041015625
3623,0.059051513671875
3624,0.0592041015625
3625,0.06072998046875
3626,0.06103515625
3627,0.0616455078125
3628,0.0616455078125
3629,0.062255859375
3630,0.0628662109375
3631,0.0640869140625
3632,0.063934326171875
3633,0.06378173828125
3634,0.06561279296875
3635,0.06622314453125
3636,0.06622314453125
3637,0.067596435546875
3638,0.06805419921875
3639,0.0689697265625
3640,0.070037841796875
3641,0.07110595703125
3642,0.071563720703125
3643,0.07171630859375
3644,0.072174072265625
3645,0.0726318359375
3646,0.074005126953125
3647,0.074920654296875
3648,0.075531005859375
3649,0.07598876953125
3650,0.076904296875
3651,0.0775146484375
3652,0.078582763671875
3653,0.079498291015625
3654,0.080108642578125
3655,0.081329345703125
3656,0.081024169921875
3657,0.081329345703125
3658,0.082550048828125
3659,0.082855224609375
3660,0.0836181640625
3661,0.085296630859375
3662,0.08575439453125
3663,0.0860595703125
3664,0.087432861328125
3665,0.088043212890625
3666,0.08819580078125
3667,0.08880615234375
3668,0.089111328125
3669,0.089874267578125
3670,0.0909423828125
3671,0.091705322265625
3672,0.092620849609375
3673,0.093536376953125
3674,0.093994140625
3675,0.095062255859375
3676,0.09552001953125
3677,0.096588134765625
3678,0.097503662109375
3679,0.0982666015625
3680,0.098876953125
3681,0.099639892578125
3682,0.100555419921875
3683,0.10101318359375
3684,0.1025390625
3685,0.102996826171875
3686,0.10345458984375
3687,0.10467529296875
3688,0.105438232421875
3689,0.1055908203125
3690,0.1055908203125
3691,0.1068115234375
3692,0.10772705078125
3693,0.107879638671875
3694,0.1092529296875
3695,0.11016845703125
3696,0.110321044921875
3697,0.11199951171875
3698,0.1129150390625
3699,0.1129150390625
3700,0.114288330078125
3701,0.11505126953125
3702,0.115509033203125
3703,0.115203857421875
3704,0.116119384765625
3705,0.117034912109375
3706,0.11749267578125
3707,0.118865966796875
3708,0.11932373046875
3709,0.1202392578125
3710,0.1202392578125
3711,0.120697021484375
3712,0.122222900390625
3713,0.122222900390625
3714,0.122833251953125
3715,0.124053955078125
3716,0.124969482421875
3717,0.125274658203125
3718,0.12542724609375
3719,0.126190185546875
3720,0.12664794921875
3721,0.127410888671875
3722,0.12847900390625
3723,0.12908935546875
3724,0.1300048828125
3725,0.130157470703125
3726,0.1300048828125
3727,0.13153076171875
3728,0.13214111328125
3729,0.13214111328125
3730,0.1324462890625
3731,0.133209228515625
3732,0.134124755859375
3733,0.135040283203125
3734,0.1348876953125
3735,0.13519287109375
3736,0.13641357421875
3737,0.13702392578125
3738,0.1373291015625
3739,0.13763427734375
3740,0.137786865234375
3741,0.137481689453125
3742,0.13916015625
3743,0.13946533203125
3744,0.139617919921875
3745,0.139923095703125
3746,0.14007568359375
3747,0.1397705078125
3748,0.139923095703125
3749,0.140533447265625
3750,0.141448974609375
3751,0.142059326171875
3752,0.142822265625
3753,0.14251708984375
3754,0.14251708984375
3755,0.142364501953125
3756,0.142669677734375
3757,0.1422119140625
3758,0.14312744140625
3759,0.14373779296875
3760,0.144805908203125
3761,0.1446533203125
3762,0.144805908203125
3763,0.1446533203125
3764,0.144805908203125
3765,0.14495849609375
3766,0.144805908203125
3767,0.14556884765625
3768,0.146331787109375
3769,0.14678955078125
3770,0.14739990234375
3771,0.1470947265625
3772,0.147247314453125
3773,0.14739990234375
3774,0.147247314453125
3775,0.1470947265625
3776,0.14739990234375
3777,0.147552490234375
3778,0.14892578125
3779,0.149383544921875
3780,0.14984130859375
3781,0.1495361328125
3782,0.150146484375
3783,0.14984130859375
3784,0.149688720703125
3785,0.149688720703125
3786,0.14984130859375
3787,0.14984130859375
3788,0.14984130859375
3789,0.14984130859375
3790,0.14984130859375
3791,0.149688720703125
3792,0.149688720703125
3793,0.14984130859375
3794,0.149993896484375
3795,0.150146484375
3796,0.14984130859375
3797,0.149688720703125
3798,0.150146484375
3799,0.14984130859375
3800,0.14984130859375
3801,0.149688720703125
3802,0.149993896484375
3803,0.14984130859375
3804,0.149688720703125
3805,0.149688720703125
3806,0.14984130859375
3807,0.149993896484375
3808,0.149383544921875
3809,0.14984130859375
3810,0.14984130859375
3811,0.149688720703125
3812,0.149688720703125
3813,0.149688720703125
3814,0.1495361328125
3815,0.149688720703125
3816,0.14984130859375
3817,0.149383544921875
3818,0.149688720703125
3819,0.149993896484375
3820,0.149993896484375
3821,0.149078369140625
3822,0.1483154296875
3823,0.14739990234375
3824,0.147705078125
3825,0.147247314453125
3826,0.1470947265625
3827,0.146942138671875
3828,0.145721435546875
3829,0.145111083984375
3830,0.144805908203125
3831,0.145111083984375
3832,0.1446533203125
3833,0.14434814453125
3834,0.143585205078125
3835,0.142822265625
3836,0.141754150390625
3837,0.141143798828125
3838,0.14007568359375
3839,0.13946533203125
3840,0.138397216796875
3841,0.13763427734375
3842,0.137176513671875
3843,0.136260986328125
3844,0.135498046875
3845,0.134429931640625
3846,0.1336669921875
3847,0.13275146484375
3848,0.132293701171875
3849,0.131378173828125
3850,0.12908935546875
3851,0.128173828125
3852,0.128021240234375
3853,0.1263427734375
3854,0.125274658203125
3855,0.124053955078125
3856,0.12176513671875
3857,0.12054443359375
3858,0.119171142578125
3859,0.11688232421875
3860,0.11566162109375
3861,0.1141357421875
3862,0.1116943359375
3863,0.1104736328125
3864,0.109710693359375
3865,0.1068115234375
3866,0.1055908203125
3867,0.1043701171875
3868,0.102081298828125
3869,0.10101318359375
3870,0.09979248046875
3871,0.09735107421875
3872,0.09521484375
3873,0.093231201171875
3874,0.090179443359375
3875,0.0885009765625
3876,0.087127685546875
3877,0.084991455078125
3878,0.08331298828125
3879,0.082550048828125
3880,0.0787353515625
3881,0.076751708984375
3882,0.07537841796875
3883,0.0726318359375
3884,0.0714111328125
3885,0.0701904296875
3886,0.066375732421875
3887,0.064697265625
3888,0.06317138671875
3889,0.060272216796875
3890,0.05859375
3891,0.0567626953125
3892,0.053253173828125
3893,0.05157470703125
3894,0.049285888671875
3895,0.04608154296875
3896,0.044403076171875
3897,0.043182373046875
3898,0.039825439453125
3899,0.037841796875
3900,0.036773681640625
3901,0.032501220703125
3902,0.03082275390625
3903,0.029296875
3904,0.025482177734375
3905,0.022735595703125
3906,0.020294189453125
3907,0.016632080078125
3908,0.014801025390625
3909,0.0128173828125
3910,0.01007080078125
3911,0.007781982421875
3912,0.005950927734375
3913,0.001068115234375
3914,-0.00091552734375
3915,-0.00274658203125
3916,-0.006866455078125
3917,-0.008392333984375
3918,-0.009765625
3919,-0.01373291015625
3920,-0.0164794921875
3921,-0.018768310546875
3922,-0.022430419921875
3923,-0.02410888671875
3924,-0.02593994140625
3925,-0.029144287109375
3926,-0.031280517578125
3927,-0.033416748046875
3928,-0.03692626953125
3929,-0.038909912109375
3930,-0.0408935546875
3931,-0.04425048828125
3932,-0.046234130859375
3933,-0.0482177734375
3934,-0.051422119140625
3935,-0.053253173828125
3936,-0.05584716796875
3937,-0.05889892578125
3938,-0.060272216796875
3939,-0.0616455078125
3940,-0.065460205078125
3941,-0.06744384765625
3942,-0.0689697265625
3943,-0.07110595703125
3944,-0.073394775390625
3945,-0.07537841796875
3946,-0.078277587890625
3947,-0.07965087890625
3948,-0.0811767578125
3949,-0.083465576171875
3950,-0.084686279296875
3951,-0.086212158203125
3952,-0.089569091796875
3953,-0.091400146484375
3954,-0.09307861328125
3955,-0.095672607421875
3956,-0.09735107421875
3957,-0.098419189453125
3958,-0.10040283203125
3959,-0.101776123046875
3960,-0.102996826171875
3961,-0.1055908203125
3962,-0.1068115234375
3963,-0.10772705078125
3964,-0.11016845703125
3965,-0.1123046875
3966,-0.114593505859375
3967,-0.1177978515625
3968,-0.118865966796875
3969,-0.1202392578125
3970,-0.1226806640625
3971,-0.123748779296875
3972,-0.124969482421875
3973,-0.127716064453125
3974,-0.128936767578125
3975,-0.12969970703125
3976,-0.132293701171875
3977,-0.133209228515625
3978,-0.133209228515625
3979,-0.135040283203125
3980,-0.1361083984375
3981,-0.13702392578125
3982,-0.139923095703125
3983,-0.14129638671875
3984,-0.1422119140625
3985,-0.1446533203125
3986,-0.145111083984375
3987,-0.14556884765625
3988,-0.14739990234375
3989,-0.14862060546875
3990,-0.149993896484375
3991,-0.150604248046875
3992,-0.151519775390625
3993,-0.152130126953125
3994,-0.154571533203125
3995,-0.15533447265625
3996,-0.1556396484375
3997,-0.156707763671875
3998,-0.15777587890625
3999,-0.1580810546875
4000,-0.159454345703125
4001,-0.160064697265625
4002,-0.160369873046875
4003,-0.162200927734375
4004,-0.16265869140625
4005,-0.16265869140625
4006,-0.16448974609375
4007,-0.164794921875
4008,-0.165252685546875
4009,-0.16693115234375
4010,-0.167236328125
4011,-0.167388916015625
4012,-0.167999267578125
4013,-0.168609619140625
4014,-0.169525146484375
4015,-0.16998291015625
4016,-0.1702880859375
4017,-0.170440673828125
4018,-0.171966552734375
4019,-0.17242431640625
4020,-0.17242431640625
4021,-0.17425537109375
4022,-0.17486572265625
4023,-0.17486572265625
4024,-0.175628662109375
4025,-0.1751708984375
4026,-0.1751708984375
4027,-0.1763916015625
4028,-0.177154541015625
4029,-0.1776123046875
4030,-0.177459716796875
4031,-0.1776123046875
4032,-0.17730712890625
4033,-0.178985595703125
4034,-0.179443359375
4035,-0.17974853515625
4036,-0.180206298828125
4037,-0.1800537109375
4038,-0.180206298828125
4039,-0.1800537109375
4040,-0.18035888671875
4041,-0.18035888671875
4042,-0.17974853515625
4043,-0.1800537109375
4044,-0.1800537109375
4045,-0.181427001953125
4046,-0.18218994140625
4047,-0.18218994140625
4048,-0.182647705078125
4049,-0.1824951171875
4050,-0.182342529296875
4051,-0.182647705078125
4052,-0.1824951171875
4053,-0.18280029296875
4054,-0.18218994140625
4055,-0.18218994140625
4056,-0.182647705078125
4057,-0.182647705078125
4058,-0.182342529296875
4059,-0.182647705078125
4060,-0.182342529296875
4061,-0.18157958984375
4062,-0.1812744140625
4063,-0.180206298828125
4064,-0.18035888671875
4065,-0.17974853515625
4066,-0.1800537109375
4067,-0.180206298828125
4068,-0.1800537109375
4069,-0.180206298828125
4070,-0.17974853515625
4071,-0.180206298828125
4072,-0.178985595703125
4073,-0.17822265625
4074,-0.178070068359375
4075,-0.1776123046875
4076,-0.1776123046875
4077,-0.177764892578125
4078,-0.177764892578125
4079,-0.17791748046875
4080,-0.1776123046875
4081,-0.1763916015625
4082,-0.175933837890625
4083,-0.17547607421875
4084,-0.1751708984375
4085,-0.175323486328125
4086,-0.1751708984375
4087,-0.175018310546875
4088,-0.174560546875
4089,-0.17425537109375
4090,-0.172882080078125
4091,-0.172882080078125
4092,-0.172882080078125
4093,-0.172882080078125
4094,-0.171966552734375
4095,-0.171661376953125
4096,-0.170440673828125
4097,-0.170440673828125
4098,-0.1702880859375
4099,-0.170440673828125
4100,-0.169677734375
4101,-0.168914794921875
4102,-0.1678466796875
4103,-0.167999267578125
4104,-0.16815185546875
4105,-0.166778564453125
4106,-0.165863037109375
4107,-0.16571044921875
4108,-0.1654052734375
4109,-0.164794921875
4110,-0.164337158203125
4111,-0.16326904296875
4112,-0.1629638671875
4113,-0.163116455078125
4114,-0.16143798828125
4115,-0.160980224609375
4116,-0.160369873046875
4117,-0.160675048828125
4118,-0.15960693359375
4119,-0.15899658203125
4120,-0.158233642578125
4121,-0.157928466796875
4122,-0.158233642578125
4123,-0.156707763671875
4124,-0.156097412109375
4125,-0.156097412109375
4126,-0.15594482421875
4127,-0.1556396484375
4128,-0.155792236328125
4129,-0.1544189453125
4130,-0.154266357421875
4131,-0.15350341796875
4132,-0.153350830078125
4133,-0.153350830078125
4134,-0.153350830078125
4135,-0.1519775390625
4136,-0.1513671875
4137,-0.150909423828125
4138,-0.150604248046875
4139,-0.15045166015625
4140,-0.1495361328125
4141,-0.14862060546875
4142,-0.14862060546875
4143,-0.1483154296875
4144,-0.1483154296875
4145,-0.147857666015625
4146,-0.146942138671875
4147,-0.146026611328125
4148,-0.145721435546875
4149,-0.1458740234375
4150,-0.1458740234375
4151,-0.14495849609375
4152,-0.14434814453125
4153,-0.143585205078125
4154,-0.1434326171875
4155,-0.1434326171875
4156,-0.1422119140625
4157,-0.142059326171875
4158,-0.141143798828125
4159,-0.14068603515625
4160,-0.1409912109375
4161,-0.1409912109375
4162,-0.13946533203125
4163,-0.139007568359375
4164,-0.13885498046875
4165,-0.1385498046875
4166,-0.137939453125
4167,-0.137176513671875
4168,-0.13641357421875
4169,-0.135955810546875
4170,-0.136260986328125
4171,-0.1361083984375
4172,-0.135498046875
4173,-0.13458251953125
4174,-0.133819580078125
4175,-0.133819580078125
4176,-0.13397216796875
4177,-0.1324462890625
4178,-0.13153076171875
4179,-0.1312255859375
4180,-0.13092041015625
4181,-0.13092041015625
4182,-0.129852294921875
4183,-0.1287841796875
4184,-0.12908935546875
4185,-0.128631591796875
4186,-0.128936767578125
4187,-0.128021240234375
4188,-0.127410888671875
4189,-0.12664794921875
4190,-0.126495361328125
4191,-0.12603759765625
4192,-0.12481689453125
4193,-0.124359130859375
4194,-0.12420654296875
4195,-0.1239013671875
4196,-0.12420654296875
4197,-0.123748779296875
4198,-0.122833251953125
4199,-0.12237548828125
4200,-0.121917724609375
4201,-0.121612548828125
4202,-0.120849609375
4203,-0.120086669921875
4204,-0.1190185546875
4205,-0.118865966796875
4206,-0.118865966796875
4207,-0.1177978515625
4208,-0.117034912109375
4209,-0.116729736328125
4210,-0.116424560546875
4211,-0.115814208984375
4212,-0.115509033203125
4213,-0.11444091796875
4214,-0.114288330078125
4215,-0.114288330078125
4216,-0.11260986328125
4217,-0.1123046875
4218,-0.1116943359375
4219,-0.111541748046875
4220,-0.110931396484375
4221,-0.11016845703125
4222,-0.109405517578125
4223,-0.1092529296875
4224,-0.1092529296875
4225,-0.107574462890625
4226,-0.106964111328125
4227,-0.1068115234375
4228,-0.1068115234375
4229,-0.106201171875
4230,-0.105438232421875
4231,-0.10467529296875
4232,-0.104522705078125
4233,-0.104217529296875
4234,-0.1025390625
4235,-0.102386474609375
4236,-0.102386474609375
4237,-0.101776123046875
4238,-0.101470947265625
4239,-0.1007080078125
4240,-0.09979248046875
4241,-0.09979248046875
4242,-0.099334716796875
4243,-0.098114013671875
4244,-0.09735107421875
4245,-0.09735107421875
4246,-0.09674072265625
4247,-0.096435546875
4248,-0.095672607421875
4249,-0.094451904296875
4250,-0.094757080078125
4251,-0.094451904296875
4252,-0.09429931640625
4253,-0.093841552734375
4254,-0.093536376953125
4255,-0.092315673828125
4256,-0.092315673828125
4257,-0.0921630859375
4258,-0.090789794921875
4259,-0.090179443359375
4260,-0.089874267578125
4261,-0.089569091796875
4262,-0.089111328125
4263,-0.088043212890625
4264,-0.087432861328125
4265,-0.0872802734375
4266,-0.0872802734375
4267,-0.085906982421875
4268,-0.084991455078125
4269,-0.0848388671875
4270,-0.084686279296875
4271,-0.084228515625
4272,-0.08331298828125
4273,-0.0823974609375
4274,-0.082244873046875
4275,-0.0823974609375
4276,-0.0811767578125
4277,-0.08026123046875
4278,-0.08026123046875
4279,-0.079803466796875
4280,-0.079803466796875
4281,-0.080108642578125
4282,-0.078125
4283,-0.077972412109375
4284,-0.077667236328125
4285,-0.0775146484375
4286,-0.076446533203125
4287,-0.076141357421875
4288,-0.07537841796875
4289,-0.0750732421875
4290,-0.074920654296875
4291,-0.07476806640625
4292,-0.074462890625
4293,-0.073699951171875
4294,-0.072784423828125
4295,-0.0726318359375
4296,-0.0726318359375
4297,-0.07232666015625
4298,-0.072021484375
4299,-0.07110595703125
4300,-0.0701904296875
4301,-0.0701904296875
4302,-0.0701904296875
4303,-0.070037841796875
4304,-0.069427490234375
4305,-0.06866455078125
4306,-0.068206787109375
4307,-0.067901611328125
4308,-0.067901611328125
4309,-0.067291259765625
4310,-0.0677490234375
4311,-0.067596435546875
4312,-0.066375732421875
4313,-0.06561279296875
4314,-0.065460205078125
4315,-0.065155029296875
4316,-0.065460205078125
4317,-0.06561279296875
4318,-0.06500244140625
4319,-0.065155029296875
4320,-0.065155029296875
4321,-0.063934326171875
4322,-0.0628662109375
4323,-0.063018798828125
4324,-0.062713623046875
4325,-0.062713623046875
4326,-0.062713623046875
4327,-0.062713623046875
4328,-0.062408447265625
4329,-0.062713623046875
4330,-0.06134033203125
4331,-0.060882568359375
4332,-0.060577392578125
4333,-0.0604248046875
4334,-0.0604248046875
4335,-0.0604248046875
4336,-0.0604248046875
4337,-0.06072998046875
4338,-0.0604248046875
4339,-0.05859375
4340,-0.058441162109375
4341,-0.0579833984375
4342,-0.05767822265625
4343,-0.057830810546875
4344,-0.058135986328125
4345,-0.058135986328125
4346,-0.0579833984375
4347,-0.05767822265625
4348,-0.05645751953125
4349,-0.05615234375
4350,-0.0555419921875
4351,-0.0555419921875
4352,-0.055389404296875
4353,-0.0555419921875
4354,-0.055389404296875
4355,-0.055389404296875
4356,-0.0555419921875
4357,-0.055389404296875
4358,-0.055389404296875
4359,-0.05523681640625
4360,-0.05401611328125
4361,-0.053558349609375
4362,-0.0531005859375
4363,-0.05279541015625
4364,-0.052947998046875
4365,-0.052642822265625
4366,-0.052947998046875
4367,-0.052947998046875
4368,-0.052947998046875
4369,-0.05279541015625
4370,-0.052642822265625
4371,-0.051422119140625
4372,-0.05096435546875
4373,-0.0506591796875
4374,-0.0506591796875
4375,-0.050506591796875
4376,-0.050506591796875
4377,-0.050506591796875
4378,-0.050506591796875
4379,-0.0506591796875
4380,-0.050506591796875
4381,-0.04913330078125
4382,-0.04852294921875
4383,-0.04852294921875
4384,-0.048065185546875
4385,-0.048065185546875
4386,-0.0482177734375
4387,-0.04791259765625
4388,-0.048065185546875
4389,-0.048065185546875
4390,-0.04791259765625
4391,-0.047760009765625
4392,-0.046539306640625
4393,-0.04608154296875
4394,-0.04547119140625
4395,-0.045928955078125
4396,-0.045318603515625
4397,-0.0457763671875
4398,-0.045623779296875
4399,-0.045928955078125
4400,-0.045013427734375
4401,-0.044403076171875
4402,-0.043487548828125
4403,-0.043792724609375
4404,-0.043487548828125
4405,-0.043182373046875
4406,-0.043487548828125
4407,-0.0433349609375
4408,-0.043182373046875
4409,-0.04302978515625
4410,-0.043182373046875
4411,-0.042877197265625
4412,-0.042572021484375
4413,-0.04180908203125
4414,-0.041046142578125
4415,-0.0408935546875
4416,-0.04058837890625
4417,-0.04058837890625
4418,-0.0408935546875
4419,-0.041046142578125
4420,-0.04058837890625
4421,-0.0408935546875
4422,-0.0408935546875
4423,-0.0408935546875
4424,-0.040740966796875
4425,-0.04058837890625
4426,-0.04058837890625
4427,-0.0408935546875
4428,-0.040740966796875
4429,-0.040740966796875
4430,-0.040740966796875
4431,-0.04058837890625
4432,-0.03936767578125
4433,-0.038909912109375
4434,-0.0384521484375
4435,-0.03814697265625
4436,-0.038299560546875
4437,-0.038604736328125
4438,-0.038299560546875
4439,-0.038299560546875
4440,-0.038604736328125
4441,-0.0384521484375
4442,-0.0384521484375
4443,-0.038299560546875
4444,-0.03692626953125
4445,-0.036773681640625
4446,-0.036163330078125
4447,-0.035858154296875
4448,-0.0360107421875
4449,-0.03570556640625
4450,-0.03570556640625
4451,-0.035858154296875
4452,-0.036163330078125
4453,-0.035858154296875
4454,-0.0360107421875
4455,-0.035552978515625
4456,-0.035858154296875
4457,-0.035858154296875
4458,-0.0360107421875
4459,-0.034637451171875
4460,-0.03387451171875
4461,-0.0335693359375
4462,-0.033416748046875
4463,-0.0335693359375
4464,-0.03326416015625
4465,-0.032958984375
4466,-0.0335693359375
4467,-0.03326416015625
4468,-0.0335693359375
4469,-0.033721923828125
4470,-0.033111572265625
4471,-0.033416748046875
4472,-0.03265380859375
4473,-0.0323486328125
4474,-0.0311279296875
4475,-0.0311279296875
4476,-0.03082275390625
4477,-0.031280517578125
4478,-0.03082275390625
4479,-0.03082275390625
4480,-0.030975341796875
4481,-0.03082275390625
4482,-0.030975341796875
4483,-0.030975341796875
4484,-0.030670166015625
4485,-0.03082275390625
4486,-0.03082275390625
4487,-0.030517578125
4488,-0.02960205078125
4489,-0.028533935546875
4490,-0.028533935546875
4491,-0.028533935546875
4492,-0.028533935546875
4493,-0.02838134765625
4494,-0.02838134765625
4495,-0.028533935546875
4496,-0.028228759765625
4497,-0.028228759765625
4498,-0.0286865234375
4499,-0.028533935546875
4500,-0.028839111328125
4501,-0.028533935546875
4502,-0.028228759765625
4503,-0.028533935546875
4504,-0.028533935546875
4505,-0.02838134765625
4506,-0.028533935546875
4507,-0.028533935546875
4508,-0.028533935546875
4509,-0.0286865234375
4510,-0.02716064453125
4511,-0.02655029296875
4512,-0.02655029296875
4513,-0.0262451171875
4514,-0.026092529296875
4515,-0.02593994140625
4516,-0.026092529296875
4517,-0.0262451171875
4518,-0.026092529296875
4519,-0.02593994140625
4520,-0.0262451171875
4521,-0.026092529296875
4522,-0.026092529296875
4523,-0.0262451171875
4524,-0.025787353515625
4525,-0.024871826171875
4526,-0.02410888671875
4527,-0.0238037109375
4528,-0.02349853515625
4529,-0.0238037109375
4530,-0.023651123046875
4531,-0.0238037109375
4532,-0.023956298828125
4533,-0.023956298828125
4534,-0.023956298828125
4535,-0.023651123046875
4536,-0.0238037109375
4537,-0.0238037109375
4538,-0.02349853515625
4539,-0.023956298828125
4540,-0.02227783203125
4541,-0.02166748046875
4542,-0.02166748046875
4543,-0.021514892578125
4544,-0.0213623046875
4545,-0.0213623046875
4546,-0.021514892578125
4547,-0.021209716796875
4548,-0.0213623046875
4549,-0.021209716796875
4550,-0.02105712890625
4551,-0.021209716796875
4552,-0.02105712890625
4553,-0.0213623046875
4554,-0.02105712890625
4555,-0.020904541015625
4556,-0.02105712890625
4557,-0.021209716796875
4558,-0.021209716796875
4559,-0.02105712890625
4560,-0.0213623046875
4561,-0.020751953125
4562,-0.021209716796875
4563,-0.021209716796875
4564,-0.02105712890625
4565,-0.021209716796875
4566,-0.021209716796875
4567,-0.021209716796875
4568,-0.021209716796875
4569,-0.021209716796875
4570,-0.0213623046875
4571,-0.02105712890625
4572,-0.02105712890625
4573,-0.021209716796875
4574,-0.021209716796875
4575,-0.020904541015625
4576,-0.02105712890625
4577,-0.020904541015625
4578,-0.021209716796875
4579,-0.021209716796875
4580,-0.0213623046875
4581,-0.021209716796875
4582,-0.0213623046875
4583,-0.021209716796875
4584,-0.021209716796875
4585,-0.020904541015625
4586,-0.021209716796875
4587,-0.020904541015625
4588,-0.0213623046875
4589,-0.021209716796875
4590,-0.021514892578125
4591,-0.021514892578125
4592,-0.02105712890625
4593,-0.02105712890625
4594,-0.0213623046875
4595,-0.020904541015625
4596,-0.02105712890625
4597,-0.020904541015625
4598,-0.02105712890625
4599,-0.0213623046875
4600,-0.021209716796875
4601,-0.021209716796875
4602,-0.021209716796875
4603,-0.021209716796875
4604,-0.02105712890625
4605,-0.020904541015625
4606,-0.021209716796875
4607,-0.02105712890625
4608,-0.021209716796875
4609,-0.0213623046875
4610,-0.02105712890625
4611,-0.020751953125
4612,-0.021209716796875
4613,-0.02105712890625
4614,-0.02105712890625
4615,-0.02105712890625
4616,-0.02105712890625
4617,-0.021209716796875
4618,-0.021209716796875
4619,-0.0213623046875
4620,-0.02105712890625
4621,-0.019989013671875
4622,-0.019073486328125
4623,-0.018768310546875
4624,-0.018768310546875
4625,-0.018768310546875
4626,-0.01861572265625
4627,-0.01861572265625
4628,-0.018463134765625
4629,-0.0189208984375
4630,-0.0189208984375
4631,-0.018768310546875
4632,-0.018768310546875
4633,-0.018768310546875
4634,-0.01861572265625
4635,-0.018768310546875
4636,-0.019073486328125
4637,-0.018768310546875
4638,-0.0189208984375
4639,-0.01861572265625
4640,-0.018768310546875
4641,-0.0189208984375
4642,-0.0189208984375
4643,-0.01861572265625
4644,-0.018463134765625
4645,-0.018768310546875
4646,-0.0189208984375
4647,-0.018768310546875
4648,-0.0189208984375
4649,-0.01861572265625
4650,-0.0189208984375
4651,-0.018768310546875
4652,-0.018157958984375
4653,-0.01739501953125
4654,-0.0164794921875
4655,-0.0164794921875
4656,-0.016326904296875
4657,-0.01617431640625
4658,-0.016326904296875
4659,-0.01617431640625
4660,-0.0164794921875
4661,-0.016326904296875
4662,-0.0164794921875
4663,-0.016326904296875
4664,-0.016021728515625
4665,-0.016326904296875
4666,-0.016632080078125
4667,-0.016326904296875
4668,-0.0164794921875
4669,-0.01617431640625
4670,-0.016326904296875
4671,-0.0164794921875
4672,-0.016326904296875
4673,-0.01617431640625
4674,-0.0164794921875
4675,-0.015869140625
4676,-0.016326904296875
4677,-0.016326904296875
4678,-0.016326904296875
4679,-0.016326904296875
4680,-0.0164794921875
4681,-0.016021728515625
4682,-0.01617431640625
4683,-0.016326904296875
4684,-0.0164794921875
4685,-0.016021728515625
4686,-0.01617431640625
4687,-0.0164794921875
4688,-0.01617431640625
4689,-0.0164794921875
4690,-0.016326904296875
4691,-0.016632080078125
4692,-0.01617431640625
4693,-0.0164794921875
4694,-0.01617431640625
4695,-0.01617431640625
4696,-0.016021728515625
4697,-0.01556396484375
4698,-0.0146484375
4699,-0.0140380859375
4700,-0.01373291015625
4701,-0.013885498046875
4702,-0.013885498046875
4703,-0.0140380859375
4704,-0.013885498046875
4705,-0.013885498046875
4706,-0.013885498046875
4707,-0.01373291015625
4708,-0.0140380859375
4709,-0.013580322265625
4710,-0.0140380859375
4711,-0.013885498046875
4712,-0.01373291015625
4713,-0.013580322265625
4714,-0.012664794921875
4715,-0.01190185546875
4716,-0.01190185546875
4717,-0.011749267578125
4718,-0.011138916015625
4719,-0.0115966796875
4720,-0.011444091796875
4721,-0.01129150390625
4722,-0.01129150390625
4723,-0.0115966796875
4724,-0.011444091796875
4725,-0.01129150390625
4726,-0.011444091796875
4727,-0.01129150390625
4728,-0.01129150390625
4729,-0.011444091796875
4730,-0.011444091796875
4731,-0.011444091796875
4732,-0.01129150390625
4733,-0.01129150390625
4734,-0.01129150390625
4735,-0.011444091796875
4736,-0.01129150390625
4737,-0.01129150390625
4738,-0.011444091796875
4739,-0.011444091796875
4740,-0.011749267578125
4741,-0.0115966796875
4742,-0.0115966796875
4743,-0.01129150390625
4744,-0.01129150390625
4745,-0.011444091796875
4746,-0.011444091796875
4747,-0.009765625
4748,-0.00946044921875
4749,-0.009307861328125
4750,-0.009002685546875
4751,-0.009002685546875
4752,-0.00885009765625
4753,-0.009002685546875
4754,-0.00885009765625
4755,-0.0091552734375
4756,-0.0091552734375
4757,-0.0091552734375
4758,-0.008697509765625
4759,-0.008544921875
4760,-0.008697509765625
4761,-0.00885009765625
4762,-0.00885009765625
4763,-0.009002685546875
4764,-0.00885009765625
4765,-0.009002685546875
4766,-0.009002685546875
4767,-0.00946044921875
4768,-0.0091552734375
4769,-0.008544921875
4770,-0.009307861328125
4771,-0.0091552734375
4772,-0.009002685546875
4773,-0.008544921875
4774,-0.00762939453125
4775,-0.0067138671875
4776,-0.0067138671875
4777,-0.00640869140625
4778,-0.006866455078125
4779,-0.00640869140625
4780,-0.00640869140625
4781,-0.00640869140625
4782,-0.006561279296875
4783,-0.006561279296875
4784,-0.00640869140625
4785,-0.006256103515625
4786,-0.006561279296875
4787,-0.0067138671875
4788,-0.00640869140625
4789,-0.006256103515625
4790,-0.00640869140625
4791,-0.006103515625
4792,-0.0067138671875
4793,-0.006256103515625
4794,-0.00640869140625
4795,-0.00640869140625
4796,-0.006256103515625
4797,-0.006256103515625
4798,-0.00640869140625
4799,-0.00640869140625
4800,-0.006256103515625
4801,-0.006256103515625
4802,-0.0067138671875
4803,-0.0067138671875
4804,-0.006561279296875
4805,-0.006256103515625
4806,-0.00640869140625
4807,-0.0067138671875
4808,-0.006561279296875
4809,-0.00640869140625
4810,-0.006561279296875
4811,-0.00640869140625
4812,-0.00640869140625
4813,-0.006256103515625
4814,-0.006561279296875
4815,-0.006561279296875
4816,-0.00640869140625
4817,-0.006561279296875
4818,-0.006561279296875
4819,-0.00640869140625
4820,-0.006103515625
4821,-0.0067138671875
4822,-0.00640869140625
4823,-0.006561279296875
4824,-0.006256103515625
4825,-0.006561279296875
4826,-0.00640869140625
4827,-0.006561279296875
4828,-0.006561279296875
4829,-0.00640869140625
4830,-0.006256103515625
4831,-0.006256103515625
4832,-0.006561279296875
4833,-0.00640869140625
4834,-0.0067138671875
4835,-0.00640869140625
4836,-0.00640869140625
4837,-0.00640869140625
4838,-0.006561279296875
4839,-0.006561279296875
4840,-0.006256103515625
4841,-0.006561279296875
4842,-0.006256103515625
4843,-0.006561279296875
4844,-0.006561279296875
4845,-0.006561279296875
4846,-0.00518798828125
4847,-0.005035400390625
4848,-0.0042724609375
4849,-0.003814697265625
4850,-0.00396728515625
4851,-0.003814697265625
4852,-0.004119873046875
4853,-0.004119873046875
4854,-0.004119873046875
4855,-0.00396728515625
4856,-0.00396728515625
4857,-0.00396728515625
4858,-0.00396728515625
4859,-0.004119873046875
4860,-0.004119873046875
4861,-0.00396728515625
4862,-0.00396728515625
4863,-0.00396728515625
4864,-0.003509521484375
4865,-0.0042724609375
4866,-0.00396728515625
4867,-0.003662109375
4868,-0.004119873046875
4869,-0.003814697265625
4870,-0.004119873046875
4871,-0.0042724609375
4872,-0.003662109375
4873,-0.004119873046875
4874,-0.004119873046875
4875,-0.0042724609375
4876,-0.004119873046875
4877,-0.003814697265625
4878,-0.003814697265625
4879,-0.004119873046875
4880,-0.003814697265625
4881,-0.00396728515625
4882,-0.004119873046875
4883,-0.0042724609375
4884,-0.0042724609375
4885,-0.00396728515625
4886,-0.003662109375
4887,-0.003662109375
4888,-0.00396728515625
4889,-0.003814697265625
4890,-0.003814697265625
4891,-0.0042724609375
4892,-0.004119873046875
4893,-0.00396728515625
4894,-0.004425048828125
4895,-0.00396728515625
4896,-0.0042724609375
4897,-0.004119873046875
4898,-0.004119873046875
4899,-0.004119873046875
4900,-0.004119873046875
4901,-0.00396728515625
4902,-0.004425048828125
4903,-0.004119873046875
4904,-0.004119873046875
4905,-0.004425048828125
4906,-0.004119873046875
4907,-0.00396728515625
4908,-0.004119873046875
4909,-0.004119873046875
4910,-0.00396728515625
4911,-0.00396728515625
4912,-0.002899169921875
4913,-0.001983642578125
4914,-0.0018310546875
4915,-0.0018310546875
4916,-0.00152587890625
4917,-0.00152587890625
4918,-0.001678466796875
4919,-0.00152587890625
4920,-0.00152587890625
4921,-0.0018310546875
4922,-0.001678466796875
4923,-0.001373291015625
4924,-0.00152587890625
4925,-0.001373291015625
4926,-0.0018310546875
4927,-0.001678466796875
4928,-0.001678466796875
4929,-0.001678466796875
4930,-0.00152587890625
4931,-0.001220703125
4932,-0.000152587890625
4933,0.00091552734375
4934,0.00091552734375
4935,0.001068115234375
4936,0.001068115234375
4937,0.000762939453125
4938,0.000457763671875
4939,0.00091552734375
4940,0.00091552734375
4941,0.000762939453125
4942,0.00091552734375
4943,0.00091552734375
4944,0.000762939453125
4945,0.001068115234375
4946,0.000762939453125
4947,0.001220703125
4948,0.000762939453125
4949,0.001068115234375
4950,0.00091552734375
4951,0.00091552734375
4952,0.00091552734375
4953,0.00091552734375
4954,0.000457763671875
4955,0.00091552734375
4956,0.000762939453125
4957,0.000457763671875
4958,0.0006103515625
4959,0.000762939453125
4960,0.000762939453125
4961,0.00091552734375
4962,0.001068115234375
4963,0.001068115234375
4964,0.0006103515625
4965,0.00091552734375
4966,0.0006103515625
4967,0.001068115234375
4968,0.00091552734375
4969,0.000762939453125
4970,0.000762939453125
4971,0.00091552734375
4972,0.000762939453125
4973,0.00091552734375
4974,0.00091552734375
4975,0.00091552734375
4976,0.00091552734375
4977,0.0006103515625
4978,0.00091552734375
4979,0.000762939453125
4980,0.00091552734375
4981,0.0006103515625
4982,0.000762939453125
4983,0.000762939453125
4984,0.00091552734375
4985,0.00091552734375
4986,0.000762939453125
4987,0.00091552734375
4988,0.00091552734375
4989,0.000762939453125
4990,0.001220703125
4991,0.00091552734375
4992,0.00091552734375
4993,0.000762939453125
4994,0.000457763671875
4995,0.000762939453125
4996,0.0006103515625
4997,0.001220703125
4998,0.000762939453125
4999,0.000762939453125
5000,0.000762939453125
5001,0.00091552734375
5002,0.00213623046875
5003,0.0030517578125
5004,0.003204345703125
5005,0.00335693359375
5006,0.00335693359375
5007,0.00335693359375
5008,0.003662109375
5009,0.003204345703125
5010,0.003509521484375
5011,0.00335693359375
5012,0.003204345703125
5013,0.00335693359375
5014,0.0030517578125
5015,0.003204345703125
5016,0.00335693359375
5017,0.003204345703125
5018,0.003509521484375
5019,0.003204345703125
5020,0.003204345703125
5021,0.002899169921875
5022,0.00335693359375
5023,0.00335693359375
5024,0.003204345703125
5025,0.0030517578125
5026,0.0030517578125
5027,0.0030517578125
5028,0.003204345703125
5029,0.00335693359375
5030,0.002899169921875
5031,0.00335693359375
5032,0.003204345703125
5033,0.003204345703125
5034,0.00335693359375
5035,0.003204345703125
5036,0.003509521484375
5037,0.003509521484375
5038,0.0030517578125
5039,0.0030517578125
5040,0.0030517578125
5041,0.00335693359375
5042,0.00335693359375
5043,0.003204345703125
5044,0.0030517578125
5045,0.003204345703125
5046,0.003204345703125
5047,0.00335693359375
5048,0.003204345703125
5049,0.003204345703125
5050,0.003509521484375
5051,0.003204345703125
5052,0.003204345703125
5053,0.00335693359375
5054,0.003662109375
5055,0.003204345703125
5056,0.00335693359375
5057,0.003204345703125
5058,0.003662109375
5059,0.003204345703125
5060,0.00335693359375
5061,0.00335693359375
5062,0.00335693359375
5063,0.0030517578125
5064,0.0030517578125
5065,0.00335693359375
5066,0.0030517578125
5067,0.00335693359375
5068,0.003509521484375
5069,0.003509521484375
5070,0.002899169921875
5071,0.0030517578125
5072,0.00335693359375
5073,0.002899169921875
5074,0.003204345703125
5075,0.00335693359375
5076,0.003204345703125
5077,0.0030517578125
5078,0.003204345703125
5079,0.003204345703125
5080,0.003204345703125
5081,0.00335693359375
5082,0.003204345703125
5083,0.00335693359375
5084,0.0030517578125
5085,0.003204345703125
5086,0.002899169921875
5087,0.003662109375
5088,0.003662109375
5089,0.003204345703125
5090,0.003509521484375
5091,0.003204345703125
5092,0.0030517578125
5093,0.00335693359375
5094,0.003204345703125
5095,0.003509521484375
5096,0.0030517578125
5097,0.00335693359375
5098,0.00335693359375
5099,0.003204345703125
5100,0.00335693359375
5101,0.003509521484375
5102,0.00274658203125
5103,0.0018310546875
5104,0.000762939453125
5105,0.001068115234375
5106,0.00091552734375
5107,0.000762939453125
5108,0.000762939453125
5109,0.00091552734375
5110,0.00091552734375
5111,0.001068115234375
5112,0.000762939453125
5113,0.001373291015625
5114,0.001068115234375
5115,0.000762939453125
5116,0.00091552734375
5117,0.001068115234375
5118,0.00091552734375
5119,0.001068115234375
5120,0.00091552734375
5121,0.000762939453125
5122,0.000762939453125
5123,0.00091552734375
5124,0.001068115234375
5125,0.0006103515625
5126,0.0006103515625
5127,0.000762939453125
5128,0.00091552734375
5129,0.00091552734375
5130,0.00091552734375
5131,0.00091552734375
5132,0.00091552734375
5133,0.00091552734375
5134,0.001068115234375
5135,0.001220703125
5136,0.000762939453125
5137,0.000762939453125
5138,0.000762939453125
5139,0.000762939453125
5140,0.000762939453125
5141,0.000762939453125
5142,0.000762939453125
5143,0.00091552734375
5144,0.00091552734375
5145,0.000762939453125
5146,0.001220703125
5147,0.001220703125
5148,0.000762939453125
5149,0.000762939453125
5150,0.000762939453125
5151,0.0006103515625
5152,0.001220703125
5153,0.001068115234375
5154,0.0006103515625
5155,0.0006103515625
5156,0.000762939453125
5157,0.000762939453125
5158,0.0006103515625
5159,0.000762939453125
5160,0.000762939453125
5161,0.00091552734375
5162,0.001068115234375
5163,0.000762939453125
5164,0.0006103515625
5165,0.000762939453125
5166,0.000762939453125
5167,0.000762939453125
5168,0.001068115234375
5169,0.001068115234375
5170,0.00091552734375
5171,0.000762939453125
5172,0.00091552734375
5173,0.000762939453125
5174,0.0006103515625
5175,0.001068115234375
5176,0.001068115234375
5177,0.001220703125
5178,0.00091552734375
5179,0.000762939453125
5180,0.001068115234375
5181,0.000762939453125
5182,0.000457763671875
5183,0.0006103515625
5184,0.000762939453125
5185,0.0006103515625
5186,0.00091552734375
5187,0.000762939453125
5188,0.001068115234375
5189,0.001068115234375
5190,0.0006103515625
5191,0.001220703125
5192,0.00152587890625
5193,0.001983642578125
5194,0.00335693359375
5195,0.003204345703125
5196,0.00335693359375
5197,0.00335693359375
5198,0.003204345703125
5199,0.003509521484375
5200,0.003204345703125
5201,0.003204345703125
5202,0.003204345703125
5203,0.003204345703125
5204,0.00335693359375
5205,0.00335693359375
5206,0.003509521484375
5207,0.0030517578125
5208,0.002899169921875
5209,0.0048828125
5210,0.00518798828125
5211,0.00518798828125
5212,0.005340576171875
5213,0.00579833984375
5214,0.00579833984375
5215,0.00579833984375
5216,0.005340576171875
5217,0.005645751953125
5218,0.005950927734375
5219,0.005645751953125
5220,0.005645751953125
5221,0.005645751953125
5222,0.00579833984375
5223,0.00579833984375
5224,0.005950927734375
5225,0.005950927734375
5226,0.006103515625
5227,0.00579833984375
5228,0.00579833984375
5229,0.005645751953125
5230,0.00579833984375
5231,0.005950927734375
5232,0.00579833984375
5233,0.00579833984375
5234,0.00640869140625
5235,0.007171630859375
5236,0.007781982421875
5237,0.0079345703125
5238,0.00823974609375
5239,0.00823974609375
5240,0.00762939453125
5241,0.0079345703125
5242,0.00823974609375
5243,0.008087158203125
5244,0.008087158203125
5245,0.00823974609375
5246,0.008087158203125
5247,0.00823974609375
5248,0.00823974609375
5249,0.0079345703125
5250,0.007781982421875
5251,0.008392333984375
5252,0.008087158203125
5253,0.008392333984375
5254,0.00823974609375
5255,0.0079345703125
5256,0.008087158203125
5257,0.008087158203125
5258,0.00823974609375
5259,0.00823974609375
5260,0.00823974609375
5261,0.00823974609375
5262,0.008087158203125
5263,0.00823974609375
5264,0.0079345703125
5265,0.00823974609375
5266,0.0079345703125
5267,0.0079345703125
5268,0.00762939453125
5269,0.009613037109375
5270,0.009918212890625
5271,0.010833740234375
5272,0.01068115234375
5273,0.010528564453125
5274,0.01068115234375
5275,0.010833740234375
5276,0.010833740234375
5277,0.010528564453125
5278,0.01068115234375
5279,0.010528564453125
5280,0.010833740234375
5281,0.010528564453125
5282,0.010833740234375
5283,0.010833740234375
5284,0.010528564453125
5285,0.010833740234375
5286,0.01068115234375
5287,0.010528564453125
5288,0.01068115234375
5289,0.010528564453125
5290,0.01068115234375
5291,0.01068115234375
5292,0.010986328125
5293,0.0103759765625
5294,0.010528564453125
5295,0.01068115234375
5296,0.01068115234375
5297,0.010528564453125
5298,0.01068115234375
5299,0.010223388671875
5300,0.01068115234375
5301,0.010833740234375
5302,0.01068115234375
5303,0.010833740234375
5304,0.010528564453125
5305,0.010833740234375
5306,0.01068115234375
5307,0.010528564453125
5308,0.011749267578125
5309,0.0128173828125
5310,0.0128173828125
5311,0.013427734375
5312,0.012664794921875
5313,0.013427734375
5314,0.01312255859375
5315,0.012969970703125
5316,0.013275146484375
5317,0.012969970703125
5318,0.012969970703125
5319,0.0128173828125
5320,0.013275146484375
5321,0.012969970703125
5322,0.0128173828125
5323,0.013427734375
