,ECG
0,-0.3406138028300806
1,-0.40008356716417587
2,-0.37141977481220495
3,-0.37977174961364346
4,-0.36664406637691127
5,-0.36669259303442503
6,-0.3574337693390543
7,-0.35376934216445816
8,-0.3475554394881368
9,-0.3430480987585414
10,-0.33692303361698495
11,-0.3311145034570682
12,-0.325775972247391
13,-0.31973747560153526
14,-0.31384553390414716
15,-0.3072149997627763
16,-0.30182076293962257
17,-0.2960769539328177
18,-0.2901026405980536
19,-0.2844065833584647
20,-0.27913697074421023
21,-0.27401004358066866
22,-0.2685428835836177
23,-0.26248238778222577
24,-0.2573036898725958
25,-0.2526148910490699
26,-0.2474855543671168
27,-0.24232269777563917
28,-0.23754946035594016
29,-0.232891335494939
30,-0.2279568539816319
31,-0.22320599088767845
32,-0.2178853365442074
33,-0.21327925191344538
34,-0.20828299285946525
35,-0.20404633075312006
36,-0.19977728806257056
37,-0.19565101265916182
38,-0.19137283277935652
39,-0.18756002546337194
40,-0.18446986645546376
41,-0.1808688257977631
42,-0.17786591360448048
43,-0.1747226438617629
44,-0.17106548958244772
45,-0.16775266937705804
46,-0.16494498067412441
47,-0.1617323310722496
48,-0.1596757702611815
49,-0.1569793271536602
50,-0.1542022005628043
51,-0.1523166252673598
52,-0.14955992401386392
53,-0.14699837575518362
54,-0.14484642066260628
55,-0.14219157492338624
56,-0.1395189786225215
57,-0.13735283332428808
58,-0.13574052183903693
59,-0.1338735901619762
60,-0.13238718242007297
61,-0.13101448938168006
62,-0.12934384248287437
63,-0.1275654296590649
64,-0.12601109278029998
65,-0.12431775066281076
66,-0.12256008601541747
67,-0.12128019752175921
68,-0.11975504088413688
69,-0.11784192491087804
70,-0.11630007908967936
71,-0.11449107987846437
72,-0.11301384095880122
73,-0.1119306476865446
74,-0.11126972297902715
75,-0.11047334468860762
76,-0.10850651590758699
77,-0.10762259202702505
78,-0.10683071923638171
79,-0.10589804124266038
80,-0.10479279793832258
81,-0.10355108429411736
82,-0.10224333628199024
83,-0.10177433865289583
84,-0.10049973438628378
85,-0.0997295378002034
86,-0.09902088989706495
87,-0.09794281137823942
88,-0.09670207635100542
89,-0.09542570530783201
90,-0.09461160115294216
91,-0.09379202153832224
92,-0.09291842854241118
93,-0.09204099109925727
94,-0.09118940506808008
95,-0.09046749708050897
96,-0.08977361727261118
97,-0.08875974318982624
98,-0.08803758616094082
99,-0.08742989290396108
100,-0.08731913725632846
101,-0.08694604774502797
102,-0.08600391012552304
103,-0.08515091840743437
104,-0.08447852327380558
105,-0.08342711535315162
106,-0.08284025793068867
107,-0.08218951890384082
108,-0.08093877960143085
109,-0.08038823095595468
110,-0.07953059141479407
111,-0.07843015032382276
112,-0.0780493668434492
113,-0.07739560417504164
114,-0.07617866827580562
115,-0.07539507345333121
116,-0.0745802743477117
117,-0.07349759219178907
118,-0.07314265327321703
119,-0.07251881363969548
120,-0.07260820475283063
121,-0.07190175579835258
122,-0.07078212043893815
123,-0.07047980166228868
124,-0.06936231696655296
125,-0.06836331990961622
126,-0.06754238853841678
127,-0.06685976885207967
128,-0.06599407575086619
129,-0.06557879751723372
130,-0.06536694880323075
131,-0.06478221439664081
132,-0.0637040522118596
133,-0.06308099786416417
134,-0.06268427328079407
135,-0.06168792792291456
136,-0.06067227304238936
137,-0.06039317313298875
138,-0.06029917595772525
139,-0.059127494542880916
140,-0.05847531290848578
141,-0.058104834211587915
142,-0.05818545602082728
143,-0.05800642414922345
144,-0.05638633994973455
145,-0.056009550828502175
146,-0.05492885993071615
147,-0.05377426571783182
148,-0.05341897759572668
149,-0.05279734562362631
150,-0.05158840415546144
151,-0.05122889820197345
152,-0.0509300541498825
153,-0.05060231716121369
154,-0.04965527308160736
155,-0.04869873718199489
156,-0.048180766488884696
157,-0.047433886336805696
158,-0.04641708018798263
159,-0.04577104144442808
160,-0.04564721742871801
161,-0.04538008441286596
162,-0.044060075535079575
163,-0.04361737085525529
164,-0.043274964634756684
165,-0.04313897513363643
166,-0.042326433674857195
167,-0.041387043360685986
168,-0.04095997379693088
169,-0.04087317104018452
170,-0.04090177292376315
171,-0.04068372171180323
172,-0.04098247136007949
173,-0.040522508415346555
174,-0.03953442856030155
175,-0.038682546448027565
176,-0.03821092297360949
177,-0.03851329731824896
178,-0.03827951025234883
179,-0.03842861514437155
180,-0.038244886621355986
181,-0.03744121046736291
182,-0.03678616886510705
183,-0.03627426268569083
184,-0.03604603691320085
185,-0.03621862172428609
186,-0.03559864276959064
187,-0.035609492163140063
188,-0.035579697385277186
189,-0.03451533967385329
190,-0.033718693440847526
191,-0.03357347578084519
192,-0.03317936637217674
193,-0.03331600969492345
194,-0.033230906630386754
195,-0.031777063937115456
196,-0.03160537658862645
197,-0.030992776835961428
198,-0.031095356334123487
199,-0.030977914256192198
200,-0.030582710318922086
201,-0.02973665445920406
202,-0.028772997037765504
203,-0.028394404469750202
204,-0.02843851470687924
205,-0.027628457600743363
206,-0.02673754488063192
207,-0.026399559396506796
208,-0.026126705131132865
209,-0.02618736343281235
210,-0.025821890119634858
211,-0.025902797669555947
212,-0.025699655267924976
213,-0.02493702833956766
214,-0.024236501172133385
215,-0.023665003774288273
216,-0.02376573847984051
217,-0.02362931841063134
218,-0.023299388185400047
219,-0.022294189646832063
220,-0.0216450540743491
221,-0.021306538565624155
222,-0.021300944006581477
223,-0.02143452803997032
224,-0.020923173420368816
225,-0.020143837642439183
226,-0.01935233238115462
227,-0.01894056194976667
228,-0.01867859529648818
229,-0.018525939880102243
230,-0.01856260422756342
231,-0.0185952972091753
232,-0.017990009631607535
233,-0.017017961854581615
234,-0.01659292032439373
235,-0.01643627365040718
236,-0.016376175489356264
237,-0.016319675214135528
238,-0.016331423244498083
239,-0.01626090070722333
240,-0.016193831011918163
241,-0.016046019461827682
242,-0.016092377374625103
243,-0.014768789129950678
244,-0.01387636276731299
245,-0.014035303137992736
246,-0.013736614930592757
247,-0.013813265893490656
248,-0.01378580241061337
249,-0.01351607326550466
250,-0.013093577561445014
251,-0.01201850099980013
252,-0.011660507023810733
253,-0.011490103444367001
254,-0.01163851604528836
255,-0.011424950593919861
256,-0.011736119124238324
257,-0.011225286537620904
258,-0.010131829659686696
259,-0.009361434185750764
260,-0.008955311405510787
261,-0.008887134792773702
262,-0.008873969137128686
263,-0.009050813666445483
264,-0.008841867444547633
265,-0.009064147461234026
266,-0.008846067024454642
267,-0.008925243801678128
268,-0.008086216125717142
269,-0.0071381260510923975
270,-0.00688435656700469
271,-0.0065904584794661235
272,-0.006647409702227289
273,-0.006549489599151897
274,-0.006494585929188608
275,-0.00657607134407969
276,-0.006394352824283828
277,-0.006562964551876044
278,-0.00685805153203563
279,-0.006366093363365735
280,-0.006554405613245535
281,-0.006568540573681842
282,-0.006428373114964085
283,-0.006431380328110941
284,-0.006700987184347283
285,-0.006545771676272231
286,-0.00647612483917391
287,-0.006277034295485773
288,-0.005202345464073971
289,-0.004456751080687259
290,-0.004209191127430051
291,-0.004359923235716257
292,-0.0038025255608642567
293,-0.003937773432633043
294,-0.0041322217508798715
295,-0.003996423473622497
296,-0.003606967496486673
297,-0.0025280334690704234
298,-0.0018561045796354771
299,-0.0016820770003212531
300,-0.001710641514134071
301,-0.0015635439455142228
302,-0.0016096634564241694
303,-0.001498351507314156
304,-0.0007826689526029422
305,0.0002301094286955165
306,0.0005742307218684787
307,0.0008373020655969622
308,0.0009312941672484393
309,0.0009839634013212373
310,0.0006912408323276752
311,0.001515146576880105
312,0.0021045490370199525
313,0.003036798641354751
314,0.0032776192260248905
315,0.003354925880426609
316,0.0032140867403350495
317,0.003438562868738099
318,0.004530474835639233
319,0.005267570571584384
320,0.005724482440994432
321,0.0056934866924947805
322,0.005566630427844546
323,0.005645169048680339
324,0.005890879234235485
325,0.005601452760062911
326,0.005992002754198057
327,0.007157364713385334
328,0.007936645918362044
329,0.008088694507961403
330,0.008343642277381755
331,0.008000501275635905
332,0.008045549780643986
333,0.008283784877487259
334,0.008245606166213205
335,0.008059254753600168
336,0.00803333484613012
337,0.008073631117449052
338,0.007880587049311674
339,0.008118834503983133
340,0.00821675720510945
341,0.008352845875846799
342,0.008241077436759557
343,0.007895206677106578
344,0.008042905007769328
345,0.008212269289601707
346,0.008074547764551103
347,0.008178019997081745
348,0.008255455224951766
349,0.008039949915628456
350,0.008151107804679963
351,0.00807616648074051
352,0.008036921143966372
353,0.00825747826050731
354,0.008044233143092824
355,0.008046778681455074
356,0.008065634856061123
357,0.008480217186498018
358,0.009147105640019996
359,0.010157178193595674
360,0.010450341044549475
361,0.010683554146169115
362,0.010603580774340057
363,0.01072393392267389
364,0.010785762711912634
365,0.010716217264733029
366,0.010858225749716741
367,0.011363609534544367
368,0.012074833196940192
369,0.013083267511762604
370,0.0131415139458712
371,0.013017069160761792
372,0.013012539384309438
373,0.013942543418997581
374,0.014684840975918776
375,0.015299498774318415
376,0.015401443439145564
377,0.015484481080420812
378,0.015431975582840892
379,0.015945525851304303
380,0.01603554489131861
381,0.016758451780133056
382,0.01781759487402078
383,0.017858750513860565
384,0.01799753531944856
385,0.017775769328645382
386,0.018132107644856264
387,0.01955140192515939
388,0.020176972954012017
389,0.02030636464901731
390,0.02047148186226465
391,0.020435272393711276
392,0.020334503013303903
393,0.020270255470116183
394,0.02019742227392628
395,0.020767560727676306
396,0.022037377444629462
397,0.022447607133891857
398,0.022876761836239542
399,0.02276621908080508
400,0.022929403061171777
401,0.023023344194156883
402,0.022731859357216392
403,0.02290490108892122
404,0.023218544977558087
405,0.02292292803418366
406,0.024031190845212193
407,0.02482773822788337
408,0.025095086128444292
409,0.025376490431389287
410,0.02550543102459276
411,0.0255823246401055
412,0.025286768661948757
413,0.025675476589907053
414,0.02660395252049903
415,0.027444257597263925
416,0.027584712848838497
417,0.027718586398038585
418,0.02765272678937939
419,0.027555844544121258
420,0.027675096250956908
421,0.028666871908586102
422,0.02959063975896454
423,0.030104789002059217
424,0.029897354631997337
425,0.030211342012658165
426,0.030307753589341166
427,0.030783176379078316
428,0.0320212836770299
429,0.03255863267576337
430,0.032425283633651734
431,0.03248330785376252
432,0.03257931473629522
433,0.0327001358610334
434,0.033016936855957156
435,0.03408799223909777
436,0.03480530378400512
437,0.03514672872227077
438,0.034977071541821045
439,0.034992767663485934
440,0.03497746966075958
441,0.03497893080160536
442,0.03502743628782223
443,0.03503338029234672
444,0.03520107688570387
445,0.03500056875067783
446,0.03555705410874946
447,0.03628564524363698
448,0.0369787136879782
449,0.03766961972484552
450,0.0377143188392471
451,0.037347605286364244
452,0.03740801368718995
453,0.03751403163557385
454,0.037920935701068983
455,0.037610839401651615
456,0.03768171623021584
457,0.03762283566029649
458,0.0375617022924892
459,0.03778810457570334
460,0.03742395814438495
461,0.03746838808570615
462,0.0374138209095543
463,0.03854132507732797
464,0.039293107665047275
465,0.03976358992804238
466,0.0394455645929846
467,0.03946134763943283
468,0.03963323983229707
469,0.03959877992171342
470,0.04010702300923002
471,0.0411579272764649
472,0.04176720015898097
473,0.04219784016599843
474,0.04233710631921095
475,0.042072568318481225
476,0.042743628603883296
477,0.043241832999306
478,0.04424770492930199
479,0.04450504892479525
480,0.04469819389801624
481,0.044492439288380405
482,0.044398438895757265
483,0.0446423101644664
484,0.04513232740936014
485,0.04635127355782003
486,0.04658575571254263
487,0.0467158181876881
488,0.04698198734071384
489,0.04723594190190589
490,0.048083258503803065
491,0.04870975742172966
492,0.04935941068772926
493,0.049555077318863196
494,0.04953197798408916
495,0.0496781254167669
496,0.05030967162245541
497,0.05136923846365047
498,0.05166725875744551
499,0.05180909425303767
500,0.052425921680536065
501,0.053464891655636476
502,0.053903479799355114
503,0.05420871868876971
504,0.05417147949962999
505,0.054296470840352405
506,0.054198059683388145
507,0.05422432635781489
508,0.0549608801496453
509,0.056239615819303916
510,0.056788269358988404
511,0.056831410690651896
512,0.05686879082658986
513,0.058065725828417486
514,0.058768470979256096
515,0.0590929917549477
516,0.05923569313661132
517,0.060181506982130026
518,0.06110898207768977
519,0.06160511123241996
520,0.06253526263713453
521,0.06337480256609639
522,0.0637417194045529
523,0.06406014219255612
524,0.06447438066583967
525,0.06541388380216966
526,0.06598943415786598
527,0.06681035228715522
528,0.06808332329246349
529,0.06851489381685033
530,0.06940751365643805
531,0.07065324248442581
532,0.07112832166257085
533,0.07179227690409856
534,0.07242499236266912
535,0.07339088681168825
536,0.07409341892171842
537,0.07517046730180894
538,0.07566817602676
539,0.07647637933327994
540,0.07775133564051083
541,0.07827945693692688
542,0.07897336776349839
543,0.08017804151092935
544,0.08075366540089768
545,0.08177119168564126
546,0.08263127177884404
547,0.0832570809464577
548,0.08415748150100696
549,0.08482751269182061
550,0.08576105740623348
551,0.08621158355005622
552,0.08601069425602494
553,0.08701426692715589
554,0.08809232894189979
555,0.08862120267510609
556,0.08840692866079139
557,0.08869417447622091
558,0.09018232703916293
559,0.09074911925859085
560,0.09106722087689136
561,0.09103924426318817
562,0.09205325114185225
563,0.09291444436863684
564,0.09336474765162894
565,0.09362127614024533
566,0.09380988715058564
567,0.09484816550246176
568,0.09560115552383103
569,0.09588889564117127
570,0.09573971793578376
571,0.09682992982915324
572,0.0976231441353162
573,0.09795809523937946
574,0.09845663150730145
575,0.09856098715381402
576,0.09992686473684755
577,0.10029501163753293
578,0.1006062951436658
579,0.10091991137349034
580,0.10201578838949321
581,0.10268867615510602
582,0.10298477933134437
583,0.10332057495140153
584,0.10346276190465395
585,0.10421525224474332
586,0.10520410013417784
587,0.1055204933911737
588,0.10574564276026208
589,0.10667449181511046
590,0.10738224134293924
591,0.10784802038888372
592,0.10783782114036895
593,0.1085264305144522
594,0.10944866316060164
595,0.11027066930933403
596,0.11031827615028235
597,0.11050708753477642
598,0.1116781717270847
599,0.11249701536141173
600,0.11277323624524818
601,0.11275457569158082
602,0.11339858124257
603,0.11455010516324231
604,0.11521782390925885
605,0.11534867870495331
606,0.1155646420738163
607,0.11620780352868403
608,0.11737774877419949
609,0.11781992179926155
610,0.1178727583704741
611,0.11825412093326597
612,0.11924647103890401
613,0.1201833963362648
614,0.12039216140283245
615,0.12032571949286264
616,0.1202223097709363
617,0.12052098202213757
618,0.12195376876181269
619,0.12231351760464464
620,0.123146349868411
621,0.12294306657030465
622,0.12270791125651533
623,0.1231157130757943
624,0.12414332440125604
625,0.12485524027395695
626,0.1253459509206922
627,0.12510110016601975
628,0.1249901316453506
629,0.12542233694310082
630,0.12651217236125656
631,0.12724449831905038
632,0.12751588712401263
633,0.12764305843036816
634,0.12794759229771277
635,0.12759734172652137
636,0.1278016096097771
637,0.12849220884038684
638,0.12947212095927693
639,0.12983069169430903
640,0.1301904835585937
641,0.12990164268711135
642,0.13007995911678055
643,0.13008037260609717
644,0.12984012033946096
645,0.13050530786633252
646,0.13024600854845617
647,0.12998857212050183
648,0.1301503158995355
649,0.12990078409038103
650,0.13022512457095897
651,0.13020163589229294
652,0.13085491943507352
653,0.1318244619873111
654,0.13255492632471613
655,0.13258954277894933
656,0.132733028604013
657,0.13235841102588775
658,0.13293014919429935
659,0.1327178506143337
660,0.13250538499996153
661,0.13335209017476823
662,0.13425389083896785
663,0.13461275108283854
664,0.13477962016654754
665,0.13494559994539782
666,0.13493966571674076
667,0.13507331936253267
668,0.13540508962323825
669,0.13507723847284547
670,0.1351974951307153
671,0.1352245013878093
672,0.13514010645998997
673,0.1350991645325083
674,0.13482547443352316
675,0.1350048963955833
676,0.13497438379481372
677,0.13508929149885177
678,0.13493112304529029
679,0.13501270105919616
680,0.13545541631733057
681,0.13489668071947972
682,0.13509963475436831
683,0.134913120770887
684,0.1350712575786523
685,0.13527238531797955
686,0.13500166864885865
687,0.13494156794464682
688,0.13485268606101958
689,0.13495386808685558
690,0.13468654719152645
691,0.13509761512347682
692,0.13482453064531494
693,0.13454387972050696
694,0.13420117027823303
695,0.1330302841828976
696,0.13274571097903032
697,0.13259441424866994
698,0.13261802233490377
699,0.1324709305652821
700,0.1323868536857035
701,0.13245464114857758
702,0.13254022411539118
703,0.1315790243732764
704,0.1306836572864909
705,0.1303006460667547
706,0.13021650417506278
707,0.1297258123183085
708,0.12872614345057445
709,0.12787516854342287
710,0.1278319589645332
711,0.12752851059810724
712,0.12651662656224047
713,0.1260970038616235
714,0.12537953130892107
715,0.12463154327230824
716,0.12341752227703905
717,0.12279590309811374
718,0.12217587192877774
719,0.12115207165008925
720,0.12057339828758255
721,0.11945482941944911
722,0.11886644037558984
723,0.11812022073324248
724,0.11719891043460161
725,0.11585907278129629
726,0.11417145755938002
727,0.11248272301874382
728,0.11081871986453949
729,0.10948730587451402
730,0.10884006131630361
731,0.10787448886832253
732,0.10668166929718628
733,0.1055283077232703
734,0.1036003335900826
735,0.10206285433307631
736,0.1002457439663407
737,0.09878726306888269
738,0.09724991819956336
739,0.09560062428307643
740,0.09403084795510613
741,0.09224418731620058
742,0.09065275363178901
743,0.08879011716451554
744,0.08737913442531219
745,0.08565153231627831
746,0.08393586423984818
747,0.08097242197963146
748,0.07872843751647864
749,0.07678801127868443
750,0.07489382387025037
751,0.07339751529095423
752,0.07192274725153518
753,0.07016668579611052
754,0.06839127003296278
755,0.06703629890432634
756,0.06513508445106589
757,0.06256276447895162
758,0.060187532418928776
759,0.05818744401686297
760,0.05657631044550003
761,0.05467493102126835
762,0.05303765975602036
763,0.05158145782514125
764,0.04969045577199723
765,0.04691060146902327
766,0.044665668202788424
767,0.0429153930071893
768,0.04087287011455428
769,0.03918131030157473
770,0.037509010683895345
771,0.03506187020903527
772,0.032767144657361996
773,0.03076764209394328
774,0.028853731212632724
775,0.027106445408439168
776,0.02526989346169398
777,0.02273620229769434
778,0.020440701019643688
779,0.018452596922793402
780,0.01697355502114823
781,0.014312297719680924
782,0.011716361840828998
783,0.009812007731138885
784,0.007694501101970988
785,0.005819920024392639
786,0.0032790725563559575
787,0.0007530896428153759
788,-0.0012814298969005065
789,-0.0042869547314657456
790,-0.0063183864854361475
791,-0.008357106493265312
792,-0.00987630171885507
793,-0.01260330170931741
794,-0.015233667858140898
795,-0.01743599323468952
796,-0.01911491928260618
797,-0.02124879546037946
798,-0.02384921787329577
799,-0.02575381981027457
800,-0.0283371930638911
801,-0.031086489816032844
802,-0.03357875564516595
803,-0.035403932948519935
804,-0.037018851368422985
805,-0.03949254412001424
806,-0.04207124802262912
807,-0.04418930986458969
808,-0.04597477869097465
809,-0.04788978905233179
810,-0.04936505842082498
811,-0.05195763581353358
812,-0.05429547438402188
813,-0.05647176663724265
814,-0.05829995510253792
815,-0.06036816503843405
816,-0.06300350575697157
817,-0.06509502761479007
818,-0.0671440178440461
819,-0.06865786279649747
820,-0.07041782119020865
821,-0.07276536066505158
822,-0.07541883149747945
823,-0.0777642605654953
824,-0.07921103565417273
825,-0.08101838158128599
826,-0.08270500081005054
827,-0.08499278786958743
828,-0.08708467639760917
829,-0.08960052787225967
830,-0.09145450193788189
831,-0.09360300279850076
832,-0.09492579238097269
833,-0.09669739440684365
834,-0.09838723402856069
835,-0.09982410247974452
836,-0.10179827347831565
837,-0.10474289774675788
838,-0.10701408722684898
839,-0.10886716919348773
840,-0.11056158198957405
841,-0.11124098043772743
842,-0.11194516878018371
843,-0.11314118643841438
844,-0.11465506432852154
845,-0.11645623420172863
846,-0.11761052773241831
847,-0.1191823753273378
848,-0.12092963970640692
849,-0.1227536994652275
850,-0.12432239288332773
851,-0.12541735424219863
852,-0.1261819772038701
853,-0.1272211703269383
854,-0.12822728329207178
855,-0.1301035966355653
856,-0.13165802182395847
857,-0.13297521202259496
858,-0.1334023929968197
859,-0.13450416828784112
860,-0.1361083959007004
861,-0.13723640802352097
862,-0.1391013360681543
863,-0.14039847955265164
864,-0.1407669076543066
865,-0.14199480208303553
866,-0.14268297161635465
867,-0.14341222646617482
868,-0.14431439762926504
869,-0.145782721825817
870,-0.14710477943132164
871,-0.14785625858011328
872,-0.14863933340303112
873,-0.1497380069038612
874,-0.15053896627828847
875,-0.15124479798379473
876,-0.15214058445084946
877,-0.15276516216053218
878,-0.1537263189920509
879,-0.1545827918463959
880,-0.15531304820980787
881,-0.15575619821845024
882,-0.15695202131804137
883,-0.15762345881985393
884,-0.1584237143125106
885,-0.15957611238718714
886,-0.16039158003853524
887,-0.16065284095765758
888,-0.16204062932076835
889,-0.16279552941671355
890,-0.16282760390443046
891,-0.16336158880632978
892,-0.1639037049641343
893,-0.16516566539904204
894,-0.16514306522841607
895,-0.16545703620242197
896,-0.16583340098458352
897,-0.16698222651345382
898,-0.16736906246185107
899,-0.16767521241007624
900,-0.16783834710640239
901,-0.16874793046850656
902,-0.16955807032295145
903,-0.17012300224585616
904,-0.1702838913369574
905,-0.1704270610201297
906,-0.17026986105260308
907,-0.17098637400332953
908,-0.17234389751167342
909,-0.17256493355434074
910,-0.17298647082269739
911,-0.1729036852257035
912,-0.17248540531433307
913,-0.17282392231039506
914,-0.17279002663139437
915,-0.17277132710404003
916,-0.17294405525740822
917,-0.17279751079771336
918,-0.1728068955317115
919,-0.17357337974646397
920,-0.17457000623657895
921,-0.17478559724298157
922,-0.17518620330116444
923,-0.17520020886387427
924,-0.17514154311043723
925,-0.17545682017804323
926,-0.17520195853346243
927,-0.17524513692449803
928,-0.17547341970834024
929,-0.17504878694924225
930,-0.17535746026349353
931,-0.17508297022747113
932,-0.17480751958996021
933,-0.17404949153002147
934,-0.1731421510349075
935,-0.17275457232324695
936,-0.173031725794736
937,-0.17283109543900846
938,-0.17260561576478678
939,-0.1729018756175065
940,-0.17196796975757675
941,-0.17132264080401516
942,-0.17048705301464048
943,-0.17050380613373597
944,-0.16993433031716557
945,-0.1691571828756831
946,-0.16828756528123015
947,-0.16796916267690104
948,-0.16800909740538986
949,-0.16798750945461438
950,-0.16751131199213348
951,-0.1666779694192006
952,-0.16597756389417823
953,-0.16576076466906162
954,-0.16546920290511216
955,-0.1654918666162194
956,-0.16551315656020452
957,-0.165290333628728
958,-0.16477646982331928
959,-0.16383593377943392
960,-0.16322697603192093
961,-0.16313091029939047
962,-0.1632069407442393
963,-0.16306754719056196
964,-0.16298870117260253
965,-0.16289127522201927
966,-0.16300922645014318
967,-0.16329562061564287
968,-0.16326603401454082
969,-0.1631577560011725
970,-0.16226403083250124
971,-0.16102712644611022
972,-0.16064619756802642
973,-0.16055901695708336
974,-0.1607551568136936
975,-0.16067775967772094
976,-0.16074460536717525
977,-0.16023796091263778
978,-0.15925431360869718
979,-0.15831061060847346
980,-0.15795900835691518
981,-0.1579119166005317
982,-0.1580315695877246
983,-0.1582449199994027
984,-0.15824142633104235
985,-0.15742037432735162
986,-0.15668881568984167
987,-0.15592799319431244
988,-0.15574912083966783
989,-0.15564804033917626
990,-0.15559204362136575
991,-0.1550606517291784
992,-0.15385970120325695
993,-0.15339523293291768
994,-0.15339503500883195
995,-0.15341631472140116
996,-0.15356426812566035
997,-0.15337853373179658
998,-0.15307596207068644
999,-0.15160918936133377
1000,-0.15139604972514192
1001,-0.15108894929161729
1002,-0.15077457123418292
1003,-0.15078772212257338
1004,-0.15033418004332746
1005,-0.14960725853044374
1006,-0.14897503133139864
1007,-0.14881372116931788
1008,-0.1486820949241355
1009,-0.14835443760582703
1010,-0.14813658798972426
1011,-0.14712700514376612
1012,-0.14655310765521337
1013,-0.1458281518078706
1014,-0.1459628396407487
1015,-0.14605237332029955
1016,-0.14543433313042325
1017,-0.14451448434252234
1018,-0.14355814640768677
1019,-0.14362618752439782
1020,-0.14354155255377832
1021,-0.14366498206390074
1022,-0.14315396363289384
1023,-0.14214240713696927
1024,-0.14153625795282443
1025,-0.1409979404173197
1026,-0.14098980319474158
1027,-0.1402918818798277
1028,-0.13935531997287784
1029,-0.13860972554555176
1030,-0.13908632822141415
1031,-0.1381068646907262
1032,-0.1368272043291774
1033,-0.13651553147130702
1034,-0.1359692107029746
1035,-0.13496011914269002
1036,-0.13423576464388579
1037,-0.13388086093121065
1038,-0.13350626993506337
1039,-0.132892593266643
1040,-0.132012206861165
1041,-0.1314048483998301
1042,-0.13043219295267627
1043,-0.12955346074869858
1044,-0.12918822179061124
1045,-0.12801041444508995
1046,-0.1272638651009912
1047,-0.12653785755740624
1048,-0.12570372069008054
1049,-0.12455515001606605
1050,-0.12375000654941565
1051,-0.12413294938383107
1052,-0.12370814835714898
1053,-0.12253892796611687
1054,-0.12201049158443385
1055,-0.12176338028050142
1056,-0.12135917130168919
1057,-0.12058372924861066
1058,-0.11982988388430066
1059,-0.119312981879235
1060,-0.11909298892545939
1061,-0.11880649959232492
1062,-0.1188102320417659
1063,-0.11823666085680752
1064,-0.11725379449873762
1065,-0.11640774305768689
1066,-0.11700374341948708
1067,-0.11613310898036482
1068,-0.11503418851062305
1069,-0.11468975988030167
1070,-0.11400307416384164
1071,-0.11400687949683026
1072,-0.11344195806401577
1073,-0.11241542796237755
1074,-0.11186453650499945
1075,-0.11150932281437012
1076,-0.11152594889674643
1077,-0.11036908717101519
1078,-0.10957015716689757
1079,-0.10931883748214913
1080,-0.1090917509169314
1081,-0.10912770465348583
1082,-0.10902284708957896
1083,-0.10790028861571802
1084,-0.10692661255412816
1085,-0.10695951248238754
1086,-0.1067072342305476
1087,-0.10588086802361321
1088,-0.10521374184886678
1089,-0.10452157561498111
1090,-0.10428011002976448
1091,-0.10403459649764937
1092,-0.10298745003646918
1093,-0.10245331105832771
1094,-0.1019515662986124
1095,-0.10222605744267643
1096,-0.10094093782609494
1097,-0.10034089783534021
1098,-0.09971271612312008
1099,-0.09955699207933057
1100,-0.09905295052654714
1101,-0.09804240818471953
1102,-0.09746907727859312
1103,-0.097096510062447
1104,-0.09698998979604534
1105,-0.09699170142230862
1106,-0.09673454926830075
1107,-0.09564273947392997
1108,-0.09511457049203795
1109,-0.09439154473438711
1110,-0.09481768994479942
1111,-0.09468016966448171
1112,-0.09441415203797389
1113,-0.09444793638851877
1114,-0.09380443046724861
1115,-0.09297135185129606
1116,-0.09233602552744129
1117,-0.0922864218941897
1118,-0.09198439880034243
1119,-0.09212906873016452
1120,-0.09201621387411005
1121,-0.09215539470274905
1122,-0.09219797400592973
1123,-0.09108410849973843
1124,-0.09023965725853418
1125,-0.08987312503377261
1126,-0.08998945304776163
1127,-0.08973209705208435
1128,-0.0899183116227279
1129,-0.08887415505485445
1130,-0.08765537519052341
1131,-0.08739273561623401
1132,-0.08722740202358785
1133,-0.08672362968262876
1134,-0.08588089648442279
1135,-0.08516529728285692
1136,-0.08512899437258346
1137,-0.08468155640060107
1138,-0.08399260130047784
1139,-0.083040581363302
1140,-0.08238297906447918
1141,-0.08235416846373338
1142,-0.08237952944474601
1143,-0.08208312185111827
1144,-0.08151766280691776
1145,-0.08075015916719157
1146,-0.07994465898711285
1147,-0.07991922012176393
1148,-0.079866484868289
1149,-0.08000770766625917
1150,-0.08005003897873357
1151,-0.07941886643633984
1152,-0.07857965534245774
1153,-0.07780877202804647
1154,-0.07777827878330792
1155,-0.07765604298718488
1156,-0.07756523060764163
1157,-0.0770818394133086
1158,-0.07609927280850524
1159,-0.07556141539803585
1160,-0.07497637776537414
1161,-0.07493568230807938
1162,-0.0750473006706601
1163,-0.0748786125379726
1164,-0.07474097324654916
1165,-0.07425902675718085
1166,-0.07316794250803142
1167,-0.07280415329276663
1168,-0.07242214719682237
1169,-0.07262690539272382
1170,-0.07255974168044275
1171,-0.07247512139414372
1172,-0.07279944917892082
1173,-0.07246996748199294
1174,-0.07236315698545259
1175,-0.07199683420846487
1176,-0.07083670217537731
1177,-0.07076782267164543
1178,-0.07020581118783722
1179,-0.0700622524488025
1180,-0.06990238421421865
1181,-0.07024998024705334
1182,-0.07007688842194747
1183,-0.07005538267659002
1184,-0.06958068260338056
1185,-0.0685087344913972
1186,-0.06806895549383574
1187,-0.06747653594192331
1188,-0.06791384907205898
1189,-0.06767453007763274
1190,-0.0675965294702371
1191,-0.0674749059409945
1192,-0.0668608260070912
1193,-0.0657523677706344
1194,-0.06522749934608732
1195,-0.06525169445645373
1196,-0.06507568983145634
1197,-0.06518521783550378
1198,-0.06528285927156795
1199,-0.0644902284314289
1200,-0.06346258792467818
1201,-0.06321384553956028
1202,-0.06254686878356082
1203,-0.06257431952816132
1204,-0.06277119065591041
1205,-0.06235301036418537
1206,-0.061147122206594115
1207,-0.06066371203907551
1208,-0.06066345638260424
1209,-0.060620122915964185
1210,-0.06052092245561407
1211,-0.059730094495532994
1212,-0.05854645440172786
1213,-0.058331143521297174
1214,-0.058093802948623395
1215,-0.05756677804955387
1216,-0.0567768595679844
1217,-0.05616366514167194
1218,-0.055382287216589055
1219,-0.05519735169655065
1220,-0.05559050969395938
1221,-0.05539742945288433
1222,-0.055331351498667636
1223,-0.05558158744902816
1224,-0.05531951385702242
1225,-0.05563992882603836
1226,-0.05509908876471069
1227,-0.054074083893414296
1228,-0.053411620527317856
1229,-0.05330617809623361
1230,-0.05302296337692716
1231,-0.05300230216055866
1232,-0.053157552313766405
1233,-0.05297847510367244
1234,-0.052831399838870495
1235,-0.05296376056029723
1236,-0.05309545164091942
1237,-0.052988589729936135
1238,-0.05293443968001494
1239,-0.05284502568317954
1240,-0.05314290440568625
1241,-0.0529031225587538
1242,-0.0532376093087346
1243,-0.052790024025271255
1244,-0.05283409967890129
1245,-0.0529481667888641
1246,-0.053045327304697035
1247,-0.05269979655841649
1248,-0.05150410240871028
1249,-0.05073087311014012
1250,-0.05074684431569229
1251,-0.05059081488054582
1252,-0.05060399421676853
1253,-0.050409895507263144
1254,-0.050568879584374254
1255,-0.050584496515365764
1256,-0.050665448555417214
1257,-0.05054880982403192
1258,-0.050649336797404444
1259,-0.050691862305288195
1260,-0.050473759883091045
1261,-0.05044306025281951
1262,-0.05019560378502162
1263,-0.04887300595825773
1264,-0.04860930349050045
1265,-0.048050858568737184
1266,-0.04812641712071624
1267,-0.04832025505616808
1268,-0.048280405028002175
1269,-0.04818728812464812
1270,-0.04809842432015866
1271,-0.048215082278586965
1272,-0.047874441074585564
1273,-0.04740160312730824
1274,-0.04624371081195819
1275,-0.045708329580594315
1276,-0.04583787239844231
1277,-0.045382857785407724
1278,-0.045631385456934105
1279,-0.045449265014090086
1280,-0.04548616778050309
1281,-0.04546418722554147
1282,-0.04494335350344606
1283,-0.04402867813211113
1284,-0.043580729723052006
1285,-0.04333623017137094
1286,-0.0432746795832702
1287,-0.043216759060293
1288,-0.04338785980378271
1289,-0.04290703163967839
1290,-0.041763413333070175
1291,-0.04113858838861903
1292,-0.04089249583366507
1293,-0.04069928620657988
1294,-0.040345267406945266
1295,-0.040684744253513705
1296,-0.03972272611120647
1297,-0.038828292486260296
1298,-0.038359245596686624
1299,-0.03801666357578052
1300,-0.03865606191865345
1301,-0.038110195730744395
1302,-0.03832444943494208
1303,-0.03747559524303055
1304,-0.036321522868272345
1305,-0.03618505218537389
1306,-0.03595278349475838
1307,-0.03581930432958271
1308,-0.03583162456416033
1309,-0.035987283115759834
1310,-0.03583457267736776
1311,-0.03583754009222992
1312,-0.03556323801603377
1313,-0.03584589392671092
1314,-0.035962215571082985
1315,-0.03607536400593561
1316,-0.03571375613044055
1317,-0.035546323185438704
1318,-0.036072639373570546
1319,-0.03536161348979148
1320,-0.03435175865954275
1321,-0.033541379911651396
1322,-0.0335382093616955
1323,-0.03338173988360546
1324,-0.033433550483713215
1325,-0.03361040886867338
1326,-0.033313312243436075
1327,-0.03335941179010224
1328,-0.03340627185556944
1329,-0.03366632066690306
1330,-0.033357156682989886
1331,-0.03325799410917773
1332,-0.03327077583254617
1333,-0.033458937422619024
1334,-0.033219959419222386
1335,-0.03332383518735101
1336,-0.03274668565325744
1337,-0.031345944743657705
1338,-0.03133087641307595
1339,-0.03090068340455642
1340,-0.0309226878405651
1341,-0.0308147127793981
1342,-0.030570946519125133
1343,-0.030921498176790345
1344,-0.030587117060572943
1345,-0.030903441330036963
1346,-0.030877640810419275
1347,-0.030959016287325954
1348,-0.03091123092692335
1349,-0.030988637190396375
1350,-0.030928103137489973
1351,-0.030745749538528516
1352,-0.031055772278574468
1353,-0.031007646537822293
1354,-0.031156785723999166
1355,-0.031084919760375865
1356,-0.030761182330997665
1357,-0.030803538379060184
1358,-0.030717833068101153
1359,-0.031191387886741983
1360,-0.02995106059648699
1361,-0.029349301637692525
1362,-0.02859688353866631
1363,-0.028573653704529012
1364,-0.02822261435675639
1365,-0.0285844659947032
1366,-0.028625543516467854
1367,-0.02832936792927525
1368,-0.02851685833459152
1369,-0.028613380878537258
1370,-0.02851634761847481
1371,-0.028459666526417647
1372,-0.028393786593768067
1373,-0.028394780158515466
1374,-0.02844992065256418
1375,-0.028322196708451843
1376,-0.028061434871465937
1377,-0.026989082263779905
1378,-0.026463121091875482
1379,-0.026022137825649373
1380,-0.02593920135662721
1381,-0.02634612405600005
1382,-0.026157653007323586
1383,-0.025932595723706518
1384,-0.026171267044584657
1385,-0.025703317955685905
1386,-0.02468497455603084
1387,-0.024132846008099892
1388,-0.02403288939855334
1389,-0.023750602703000813
1390,-0.023796741256775354
1391,-0.02372096586504302
1392,-0.023705635176572717
1393,-0.02242513568765754
1394,-0.02192322604276356
1395,-0.021379008003841342
1396,-0.021641909706109703
1397,-0.021211957019559458
1398,-0.021150245152020436
1399,-0.02100384170881883
1400,-0.02098695618738429
1401,-0.021373779454756454
1402,-0.02029505431837853
1403,-0.019597124539927874
1404,-0.018800371010716636
1405,-0.01873103436019865
1406,-0.018499787066105507
1407,-0.018803980375995656
1408,-0.01871181391875113
1409,-0.018993458924047114
1410,-0.018917599834234005
1411,-0.018594389647606662
1412,-0.018689385520365247
1413,-0.018626229070072203
1414,-0.018716512290091632
1415,-0.018691197452355257
1416,-0.018794086251904114
1417,-0.01895755081168566
1418,-0.018712417864034762
1419,-0.018869447744672783
1420,-0.018885142331687258
1421,-0.018756313880100677
1422,-0.01897051297093151
1423,-0.018676185476719082
1424,-0.018690829897093374
1425,-0.018965233871886346
1426,-0.01892502780295367
1427,-0.018615984293002017
1428,-0.01891805008833221
1429,-0.01900740399856248
1430,-0.018611086447153247
1431,-0.01844432476892627
1432,-0.01890327301286708
1433,-0.019034246257341063
1434,-0.018916840472108044
1435,-0.01861935823768022
1436,-0.01891508059805778
1437,-0.01888178336312743
1438,-0.01879240008733341
1439,-0.0187294063919156
1440,-0.01874882692764911
1441,-0.01886135459481622
1442,-0.01853683241349039
1443,-0.01882395832052061
1444,-0.01884379679522684
1445,-0.018786254149524704
1446,-0.018732340227439793
1447,-0.019086081871905598
1448,-0.018301013078056705
1449,-0.01701089043644887
1450,-0.016862622288170415
1451,-0.016389815718962787
1452,-0.0162364181733869
1453,-0.016424499552051695
1454,-0.01639293433177707
1455,-0.016177002805709502
1456,-0.016408441667083287
1457,-0.01632087000029701
1458,-0.015985380184373937
1459,-0.01629212728375487
1460,-0.016124732866365427
1461,-0.016259894551298493
1462,-0.016385497340238607
1463,-0.016530814458642316
1464,-0.016129774498031515
1465,-0.016012285298951358
1466,-0.01646288158854232
1467,-0.01639706672735519
1468,-0.01632245800064307
1469,-0.015912125801297503
1470,-0.014822209100474748
1471,-0.014303736786183612
1472,-0.013823491538137564
1473,-0.013834038161426305
1474,-0.013690337729676257
1475,-0.013630573712380033
1476,-0.013793102673466336
1477,-0.013078183498260372
1478,-0.01187159970920526
1479,-0.01172818592279576
1480,-0.011548853239206753
1481,-0.011344336499509678
1482,-0.011484773569314776
1483,-0.011150417933180532
1484,-0.011117666801283036
1485,-0.011319748497811559
1486,-0.011546169669794918
1487,-0.010978771193402542
1488,-0.010139997605589412
1489,-0.009361481409863022
1490,-0.008868574317229694
1491,-0.009180744936563479
1492,-0.008871423167333272
1493,-0.00880846091863407
1494,-0.009053110440495872
1495,-0.00903558812717176
1496,-0.00937781805718436
1497,-0.010041254485322058
1498,-0.010657810376237508
1499,-0.011211095698654352
1500,-0.011269918760331378
1501,-0.011607258596527286
1502,-0.011300763983248311
1503,-0.011319018988595421
1504,-0.011450224791442299
1505,-0.011367642355165785
1506,-0.011246569968745445
1507,-0.011380174771561233
1508,-0.011416798727814707
1509,-0.011299053984148964
1510,-0.011614987595069848
1511,-0.011539358740695865
1512,-0.011308183586482489
1513,-0.011225376728877915
1514,-0.011480195159320897
1515,-0.01156656187147697
1516,-0.011329416530626387
1517,-0.011273313486558658
1518,-0.011513892366665144
1519,-0.01116077832289736
1520,-0.011350579839585045
1521,-0.011197501516630707
1522,-0.011153252403469836
1523,-0.01135227659926641
1524,-0.011335543382436522
1525,-0.011457964997942572
1526,-0.011413814260844306
1527,-0.011172626736721205
1528,-0.011412418926985751
1529,-0.011265549340636812
1530,-0.011305234121195102
1531,-0.011517089896406867
1532,-0.01144175846339692
1533,-0.01157216095681094
1534,-0.011604330104605143
1535,-0.011667373056788544
1536,-0.01157355127943019
1537,-0.011383190887004893
1538,-0.011429938013542033
1539,-0.011470351576453635
1540,-0.011405027489405565
1541,-0.011509914073700325
1542,-0.011531196735691054
1543,-0.011241322217456518
1544,-0.011383163743487858
1545,-0.011531259316897038
1546,-0.011541911027845752
1547,-0.011206767234586764
1548,-0.01150694853579896
1549,-0.011471711886253145
1550,-0.011346769426694187
1551,-0.011153892790971384
1552,-0.011352582506385154
1553,-0.011390473803635318
1554,-0.011207261648470817
1555,-0.011313514651707492
1556,-0.011574314448556488
1557,-0.011340472696844482
1558,-0.011233008688556619
1559,-0.011114832656908697
1560,-0.011302063739882927
1561,-0.011414631938109553
1562,-0.011245388014133094
1563,-0.011253242392264683
1564,-0.011498288735136737
1565,-0.011245048013753676
1566,-0.011464241950733435
1567,-0.011577098898526343
1568,-0.011104560579070775
1569,-0.010144135272465335
1570,-0.009388964036785637
1571,-0.00888304785164688
1572,-0.008842385313200175
1573,-0.00911854627105098
1574,-0.009009081083692187
1575,-0.008905984567326318
1576,-0.008744445075502488
1577,-0.009155841507978291
1578,-0.008910761586941778
1579,-0.008930217407765862
1580,-0.009010582512188102
1581,-0.009089901144272671
1582,-0.008929089141526084
1583,-0.009165608369214805
1584,-0.00871141756528437
1585,-0.00904619455661532
1586,-0.009157850156961479
1587,-0.009216404666219374
1588,-0.009312564827494518
1589,-0.00908932647514443
1590,-0.009095058125390918
1591,-0.008863484643519121
1592,-0.009086450123802537
1593,-0.008972415499133607
1594,-0.00898651012245244
1595,-0.008978723299948073
1596,-0.009211143624050426
1597,-0.009089989632781006
1598,-0.009389020599440108
1599,-0.0103682162753498
1600,-0.010993484092574668
1601,-0.011377260317097666
1602,-0.011533116168475365
1603,-0.01134863227802844
1604,-0.011447662572589423
1605,-0.011251660526654333
1606,-0.011527221206214203
1607,-0.01153878261903816
1608,-0.011361042836003251
1609,-0.01164991444224202
1610,-0.011285668379033408
1611,-0.011282094732679685
1612,-0.011578239609387912
1613,-0.011348707129291206
1614,-0.01131675995989745
1615,-0.01119503285864575
1616,-0.011598990638022597
1617,-0.011352971688536898
1618,-0.011573871403231838
1619,-0.011386585147404779
1620,-0.011297783263002818
1621,-0.011441944717526905
1622,-0.01146970647463816
1623,-0.011266395178807904
1624,-0.01140569095186199
1625,-0.011145388709460092
1626,-0.011240732467913073
1627,-0.011415660907513161
1628,-0.011354173548410182
1629,-0.011465255262776806
1630,-0.011483824484553855
1631,-0.011619822184464603
1632,-0.011578047162799813
1633,-0.011195819281036443
1634,-0.011256119950578727
1635,-0.011476592850858478
1636,-0.011489017019188301
1637,-0.01160083532678095
1638,-0.01140921707059102
1639,-0.01140238895621447
1640,-0.01135863598467307
1641,-0.011345533306053689
1642,-0.011258834486603152
1643,-0.011458329529930159
1644,-0.011589363663302711
1645,-0.011534013449540153
1646,-0.01146066429376367
1647,-0.011591889574907394
1648,-0.011312700180755867
1649,-0.011475841347315201
1650,-0.01156977305731133
1651,-0.01176133900488226
1652,-0.01129198697712409
1653,-0.011304301532804192
1654,-0.011310596919557278
1655,-0.011583075768712448
1656,-0.011452345179040204
1657,-0.011690126060360871
1658,-0.011566359094406373
1659,-0.011328539435475312
1660,-0.011724471722538446
1661,-0.011237472136025476
1662,-0.011435627406308322
1663,-0.011531877107123344
1664,-0.011622524455280576
1665,-0.011367086829899507
1666,-0.010195918582443966
1667,-0.009553827890797085
1668,-0.009056638926385899
1669,-0.009328487841223644
1670,-0.008805374984509944
1671,-0.009214670837930525
1672,-0.009093819028597384
1673,-0.009103956486310676
1674,-0.008992983641492444
1675,-0.009156936360448687
1676,-0.008967299119391656
1677,-0.008855110971785459
1678,-0.008912143878188637
1679,-0.008807309785916921
1680,-0.009116475049197941
1681,-0.00883696259476563
1682,-0.00926620132327198
1683,-0.008974941238956466
1684,-0.008285745240004968
1685,-0.007325129400386726
1686,-0.006803894742093907
1687,-0.006484899533143226
1688,-0.006590271833113395
1689,-0.006814316475571861
1690,-0.006214150167676351
1691,-0.006346475197431322
1692,-0.0065835333639455125
1693,-0.0064605996005105484
1694,-0.0066149013464279795
1695,-0.006445079421863677
1696,-0.006513039408227105
1697,-0.0065864765239699325
1698,-0.0062025829890168796
1699,-0.0063414726289770995
1700,-0.0063343755521631665
1701,-0.006209109580348567
1702,-0.006606268636951625
1703,-0.006810851527734597
1704,-0.006456245729624618
1705,-0.0066948937398085455
1706,-0.006435069784743359
1707,-0.006534988879748932
1708,-0.0065814174324779285
1709,-0.006466837006458621
1710,-0.0064920210863794285
1711,-0.006279047861851396
1712,-0.006620213620905972
1713,-0.006732308015471104
1714,-0.00671285851303307
1715,-0.006637771615814185
1716,-0.006394465967918054
1717,-0.006474165793424272
1718,-0.006498010131657455
1719,-0.00624913202146591
1720,-0.006692868081735293
1721,-0.006417210284555327
1722,-0.006490298964529569
1723,-0.006748713166804063
1724,-0.00617359472147186
1725,-0.005200379703875072
1726,-0.004428315393345745
1727,-0.0042577656509173506
1728,-0.004270642099269371
1729,-0.0040569702531156535
1730,-0.003953190296027016
1731,-0.003973788692751083
1732,-0.003956009824420047
1733,-0.004054589790565784
1734,-0.00401620962370266
1735,-0.0037273058520722845
1736,-0.004148323688612185
1737,-0.0037663202505096175
1738,-0.003891885281647049
1739,-0.004102258732885717
1740,-0.003974202804330858
1741,-0.0037796510169465026
1742,-0.004003820230701792
1743,-0.0038219922095969637
1744,-0.004009952473726727
1745,-0.0038323068315652964
1746,-0.004119526377273204
1747,-0.0041832773285112
1748,-0.003924980657480307
1749,-0.003982822155006796
1750,-0.0039984101102769455
1751,-0.0041649490496956385
1752,-0.0038252267266684122
1753,-0.0038682938945004517
1754,-0.003914122180644185
1755,-0.003855631311874081
1756,-0.004010178947402544
1757,-0.004152582286677974
1758,-0.0038514068435580593
1759,-0.003983762108998282
1760,-0.003940330822455312
1761,-0.0039074663503485116
1762,-0.004034163127319
1763,-0.004077452815739755
1764,-0.003954794439330174
1765,-0.003912328486931155
1766,-0.004149536897622006
1767,-0.004016477400875705
1768,-0.004004855455182843
1769,-0.003943536638072387
1770,-0.0039845142789995845
1771,-0.003949299391011403
1772,-0.004057991019387426
1773,-0.004155581498295043
1774,-0.004011732637495991
1775,-0.0037697402453839486
1776,-0.0042088187918286465
1777,-0.0039052959827665487
1778,-0.003806427962175728
1779,-0.0040571899819559845
1780,-0.0042192155066369565
1781,-0.004091766951450492
1782,-0.00393382730731443
1783,-0.003981151621389129
1784,-0.0040363446034722495
1785,-0.004175975204344326
1786,-0.003970512843414491
1787,-0.0033708362964011075
1788,-0.002697424565889529
1789,-0.0018966762148235356
1790,-0.0017540513588613109
1791,-0.001618043852428617
1792,-0.001599999241735707
1793,-0.0015995570331752207
1794,-0.0016104173303459308
1795,-0.0015526066307366424
1796,-0.00149289034178851
1797,-0.0015910093254938322
1798,-0.0017785332691720383
1799,-0.00159788185705642
1800,-0.0014561279994669168
1801,-0.001722567804430787
1802,-0.001247166646960524
1803,-2.4273400872947372e-05
1804,0.00025873519583633457
1805,0.0009041632941298332
1806,0.0008183209729007676
1807,0.000805815598454431
1808,0.0008542919881678991
1809,0.000946920108836383
1810,0.0006372725094397461
1811,0.000982686128704689
1812,0.0008203175818844463
1813,0.0007527257611148107
1814,0.0007486734446556824
1815,0.0009483655240950189
1816,0.001148185065284171
1817,0.0007736942560361856
1818,0.000779901308510489
1819,0.0009362415649774319
1820,0.0008118561753518953
1821,0.0007724419804637443
1822,0.0008877364386294268
1823,0.00071499824130382
1824,0.0008257212238910527
1825,0.0008289765241524855
1826,0.0008651439135918137
1827,0.0010093862924656415
1828,0.0007896874383687833
1829,0.0005596433418729366
1830,0.0008244894709353145
1831,0.0009495067429531145
1832,0.0009014057750177418
1833,0.0006763424792763465
1834,0.0007878593561362875
1835,0.0009682158082196541
1836,0.0008456048377592822
1837,0.0008641179306368016
1838,0.0007210985670863049
1839,0.0005990290798392861
1840,0.0005821356521373954
1841,0.0008169135103468949
1842,0.0006623194520776509
1843,0.0006512180206904431
1844,0.0006987780416014056
1845,0.0008185246970736368
1846,0.000796284712430113
1847,0.0007352686775888603
1848,0.0010324713060013112
1849,0.0008648299754326644
1850,0.0007390577712645267
1851,0.000898509403691308
1852,0.0007355265441781504
1853,0.0008729377173399879
1854,0.0005789726961775807
1855,0.0011208770357283935
1856,0.0007748704551385973
1857,0.000808488937491992
1858,0.0008339856733547564
1859,0.0009422580379947396
1860,0.0007322753182916388
1861,0.00016638656133755004
1862,-0.000953460651596299
1863,-0.0011552794402959355
1864,-0.0014434828873661004
1865,-0.001352846929660704
1866,-0.001336287466195503
1867,-0.0017415629462850396
1868,-0.0015551371895326188
1869,-0.0015299152628223199
1870,-0.0015194860715348837
1871,-0.0015345172516632987
1872,-0.0016172208674210442
1873,-0.0013992920210383357
1874,-0.0016532020099930655
1875,-0.0015409387052612905
1876,-0.0015300242495963105
1877,-0.0015055461647322944
1878,-0.0018282132517356655
1879,-0.002459947481502197
1880,-0.003431558398387735
1881,-0.00385106286326718
1882,-0.003980552840223902
1883,-0.00393274461113433
1884,-0.0041817577910302816
1885,-0.004303883339970898
1886,-0.004199813523133875
1887,-0.00413348896940775
1888,-0.004006768838991607
1889,-0.004128557786492813
1890,-0.004059424747841276
1891,-0.004298177191847329
1892,-0.003879678855166353
1893,-0.00406313548614279
1894,-0.0041645985304726634
1895,-0.003920940930706681
1896,-0.004271799622238252
1897,-0.004383065776429113
1898,-0.0036453995611755593
1899,-0.0023636900440381927
1900,-0.002231911601260245
1901,-0.0014919869685074438
1902,-0.0013674153049628845
1903,-0.0017321442538894914
1904,-0.0016137442517034663
1905,-0.0015594451784609541
1906,-0.0015551087673894147
1907,-0.001518355355598265
1908,-0.0018573757296423599
1909,-0.0018229522118479475
1910,-0.0017515740909488469
1911,-0.0015268965605286088
1912,-0.0015229597230011422
1913,-0.0015383622227051427
1914,-0.0012687800101647876
1915,-0.0016127879043489528
1916,-0.0015015879393609564
1917,-0.0014693611105839226
1918,-0.0017434509253407397
1919,-0.0015358361333854887
1920,-0.0015893332078124635
1921,-0.0017342902857326137
1922,-0.001482681246096401
1923,-0.0014377500836761606
1924,-0.0015038791441320768
1925,-0.001549142719069983
1926,-0.001608337684845519
1927,-0.001607099744731696
1928,-0.0015869970331937595
1929,-0.0016449690127599852
1930,-0.001655743954426344
1931,-0.0014055763781381915
1932,-0.0015930016471177337
1933,-0.0014155222279670467
1934,-0.0016328703369325108
1935,-0.0014679769876093118
1936,-0.0016561787311780514
1937,-0.0017141181119167048
1938,-0.0014848523108106277
1939,-0.0014930101272307894
1940,-0.0016159337871255038
1941,-0.0016223911645800546
1942,-0.001707467274653991
1943,-0.0016600598166451046
1944,-0.0015692737154228513
1945,-0.0014871003924697183
1946,-0.0016482236616354065
1947,-0.0018682019706110732
1948,-0.001409951632265951
1949,-0.0015555859183378068
1950,-0.0012938442827023437
1951,-0.001940216592226835
1952,-0.00173009153000284
1953,-0.0012998775840751512
1954,-0.0015458716337773684
1955,-0.0013607451409200445
1956,-0.0002745016933452242
1957,0.00040807297923357985
1958,0.0008184694413040958
1959,0.001078433063596363
1960,0.001017477346950974
1961,0.0008208972110405654
1962,0.0009441522826451024
1963,0.0006958288846719088
1964,0.0011872856535062577
1965,0.001929071611790629
1966,0.0032105025827073534
1967,0.0033768942051826518
1968,0.0032141332107686474
1969,0.0032147536347092998
1970,0.0031802509335457033
1971,0.0032728914642324324
1972,0.0034091691332334565
1973,0.0031695557895589786
1974,0.003333447503900523
1975,0.0032066169803422347
1976,0.003117929092907971
1977,0.003267076515237562
1978,0.0032407539086616683
1979,0.0031619791638933404
1980,0.003289233850464599
1981,0.0033533353082799973
1982,0.003062804919051241
1983,0.003310067362855414
1984,0.003224460563816346
1985,0.0035066772811063805
1986,0.003436586613248904
1987,0.0032952796691379915
1988,0.0031595496551754393
1989,0.0030840756312447578
1990,0.003495043357333377
1991,0.003247475809579355
1992,0.0035038651912469277
1993,0.003364281653508967
1994,0.003108295180058271
1995,0.0030366920054236764
1996,0.003245997726123265
1997,0.003152121374204765
1998,0.003194197040468353
1999,0.003286538164117025
2000,0.002978830062802172
2001,0.0033718063919307324
2002,0.003504156870281941
2003,0.0034520115526586862
2004,0.00316067529657943
2005,0.003544345495503341
2006,0.003373757462433793
2007,0.0033075786489272277
2008,0.0031136491965107296
2009,0.003404937810920017
2010,0.0036088459719103376
2011,0.00323597237778005
2012,0.0033063710595465667
2013,0.0033796616278202575
2014,0.0032933389805251344
2015,0.003201024215684881
2016,0.0034176311212344764
2017,0.003272282167755026
2018,0.003279835246125315
2019,0.0030767479905145175
2020,0.003356737075765217
2021,0.0031152251487083734
2022,0.0032416285638290497
2023,0.003413019232624286
2024,0.0031092900538860894
2025,0.0032961869852656603
2026,0.0029758324405718697
2027,0.003252838290660354
2028,0.0030850783906041486
2029,0.0033332473538212194
2030,0.0032347144523393323
2031,0.0030945341901864043
2032,0.0030269264048810043
2033,0.003488928907183708
2034,0.00347815857115362
2035,0.0031838649207829367
2036,0.0034206291709867015
2037,0.0030910787766368765
2038,0.0033441031215003477
2039,0.003211529899191723
2040,0.003159982825214441
2041,0.0031993973377840708
2042,0.0033136444790720174
2043,0.003414833558244395
2044,0.0030032926446754583
2045,0.003475735135590755
2046,0.0032147583360317834
2047,0.00327557580913095
2048,0.003269961959636718
2049,0.003082676439590656
2050,0.0031779353586749736
2051,0.0034734279273641077
2052,0.0034878769047016317
2053,0.0032120349162548887
2054,0.003432676486146295
2055,0.0031255408154090927
2056,0.0032299453443547783
2057,0.0029966441255918556
2058,0.0031621742723309874
2059,0.0033672506900810167
2060,0.0034542992245168306
2061,0.0031373062953748646
2062,0.0032355336573090406
2063,0.003452555546711141
2064,0.003235106618403164
2065,0.0034911864835996446
2066,0.0031705996372815596
2067,0.0029631662883555197
2068,0.003322922471894949
2069,0.003375025315350283
2070,0.003133773657866989
2071,0.0034901463732951903
2072,0.003297816767760475
2073,0.003091002931221751
2074,0.0031357208845335365
2075,0.0032063749830035953
2076,0.003553139435373447
2077,0.0033963533483887553
2078,0.003156340170971882
2079,0.0034997828766905733
2080,0.0032247737853826988
2081,0.0031928338351286116
2082,0.0035525881533008045
2083,0.0032059730748920353
2084,0.003124941616751327
2085,0.0033503107493259754
2086,0.0031658426866084835
2087,0.0033940951553397096
2088,0.003329052288529286
2089,0.0033761504873111026
2090,0.0035336926629772575
2091,0.0048199153222350626
2092,0.005197891337099185
2093,0.0057086504181571495
2094,0.005876365734096762
2095,0.00535641704189746
2096,0.005803808063125306
2097,0.005473578844871871
2098,0.005662003946913575
2099,0.005666646857573122
2100,0.005676543878563921
2101,0.005778482752562902
2102,0.006101794408509639
2103,0.00573684231696979
2104,0.005868845867240753
2105,0.005633755157126942
2106,0.0061198982673566025
2107,0.006602796914742944
2108,0.00754202191237257
2109,0.008193889611301504
2110,0.00819110488869167
2111,0.008283199341284108
2112,0.008185643219615254
2113,0.008158383612378972
2114,0.008169039487821779
2115,0.008159842420324241
2116,0.008169740750673374
2117,0.008156032193954103
2118,0.008423722180796456
2119,0.008497370961903375
2120,0.008366651340987881
2121,0.008193249076261093
2122,0.008284358081667303
2123,0.008112396596995952
2124,0.008259570541412544
2125,0.008495254345873669
2126,0.007991370882952938
2127,0.008182489983936135
2128,0.008087849452727957
2129,0.008026235518559825
2130,0.007850245674093677
2131,0.008155744935824138
2132,0.008221242703041705
2133,0.00774089006072023
2134,0.008188397007129344
2135,0.008167519389543184
2136,0.007779554841008212
2137,0.008320798112887485
2138,0.008134362691148122
2139,0.008130289722751174
2140,0.009044359906950794
2141,0.01003748779141705
2142,0.01044597597889553
2143,0.010624361330526395
2144,0.010520934231598835
2145,0.01041780342211584
2146,0.010763980276503552
2147,0.010673108666913431
2148,0.01059047787025769
2149,0.010804260125680693
2150,0.010634179028048788
2151,0.010755497995342998
2152,0.010670395986122384
2153,0.010263579046521894
2154,0.009411069787956515
2155,0.008405390733341544
2156,0.008199549133134122
2157,0.00830311096147569
2158,0.008261450103301024
2159,0.00816289637854987
2160,0.008337303764118814
2161,0.007985017375436845
2162,0.008340688940073766
2163,0.008228441998341721
2164,0.008325374895177888
2165,0.008349831440537076
2166,0.008184917657265589
2167,0.008531903611045962
2168,0.007977155490116315
2169,0.008392961284947086
2170,0.008007019304047918
2171,0.008330739918990748
2172,0.008102039140269128
2173,0.007978838002855447
2174,0.008026509332676204
2175,0.007892271960199997
2176,0.008000349160082453
2177,0.008107261773402725
2178,0.008175870639896126
2179,0.008135191365150356
2180,0.007867552304332589
2181,0.008396313556441775
2182,0.008215354338182582
2183,0.008055047057254062
2184,0.00810133258085527
2185,0.008077384552042795
2186,0.008160909601129238
2187,0.008073694998465481
2188,0.00809883864539442
2189,0.008546626444086188
2190,0.009460959709336976
2191,0.010143797483350536
2192,0.010597288467232308
2193,0.010507209850721132
2194,0.010722021602849357
2195,0.010576448444112202
2196,0.01063365696687373
2197,0.010762522400439983
2198,0.010749596600976699
2199,0.010662689105043088
2200,0.010688871697356392
2201,0.010681034095069519
2202,0.010665840289504899
2203,0.01051829275503774
2204,0.010531899092315554
2205,0.010685733672254526
2206,0.011743733688892258
2207,0.012436356698721915
2208,0.01281978542799402
2209,0.012925394852135053
2210,0.012806595757288352
2211,0.01282376134189922
2212,0.013240586715608852
2213,0.013060302736535781
2214,0.013116536887851221
2215,0.012805227999574747
2216,0.012953164661011445
2217,0.01298494493833852
2218,0.012926897250576892
2219,0.0129716236489091
2220,0.012920287983444535
2221,0.013150073881987169
2222,0.013135589074413844
2223,0.013163373818377897
2224,0.012981634144341189
2225,0.013241717903135445
2226,0.013063031408157517
2227,0.01243435410570176
2228,0.01107156301411046
2229,0.010895420110595386
2230,0.01088412723313462
2231,0.010559358767732991
2232,0.010634476881875637
2233,0.010529825110358125
2234,0.010668555529632796
2235,0.010719701139498435
2236,0.01036991787083968
2237,0.01087606039314472
2238,0.01090870133027712
2239,0.010700807019647842
2240,0.01070715495115253
2241,0.010569044745538419
2242,0.010780304779788828
2243,0.010422653674940167
2244,0.010802471374008986
2245,0.010730425623084886
2246,0.010509967306488255
2247,0.010615765824631336
2248,0.010699888260202026
2249,0.01087792501679648
2250,0.010452717993360065
2251,0.01067471465538638
2252,0.01084205171149831
2253,0.010491314423948617
2254,0.01060212913209607
2255,0.01061835262576102
2256,0.010796885011188239
2257,0.010510260073614011
2258,0.010609759128848609
2259,0.010635722258743667
2260,0.010669272228486033
2261,0.010394186000583068
2262,0.010637551747061939
2263,0.010708956077942667
2264,0.010510386473694849
2265,0.010758026048939223
2266,0.010535242173121387
2267,0.01058339790688906
2268,0.010782994628004057
2269,0.010643666425425668
2270,0.0109074310758945
2271,0.010681012304206062
2272,0.010466894088647559
2273,0.010492292031198044
2274,0.010651574995004664
2275,0.010670346883213836
2276,0.010516293021857755
2277,0.010790178167044508
2278,0.010872495482649128
2279,0.010377025825808548
2280,0.01048320563672225
2281,0.010674845084461489
2282,0.010659863692019223
2283,0.010755370734009336
2284,0.01063493986581071
2285,0.010533844254686526
2286,0.01059003268168198
2287,0.010715645579473042
2288,0.010382304536862117
2289,0.010703327938677116
2290,0.010630278375890785
2291,0.010297187174542121
2292,0.010684715529087792
2293,0.010656755550049947
2294,0.010787527073514713
2295,0.010590350174210282
2296,0.010519537483779833
2297,0.010859311043983978
2298,0.010250416394731711
2299,0.01060376053443303
2300,0.010890692342050458
2301,0.010438469288675093
2302,0.010500149737860518
2303,0.01071996675165527
2304,0.01062627994387094
2305,0.010607327544709968
2306,0.010586564834813334
2307,0.010760466278243567
2308,0.010479413302634542
2309,0.010963036698506292
2310,0.011854355613271124
2311,0.012566480253672742
2312,0.012765400563285912
2313,0.01298031807369499
2314,0.01312000936614836
2315,0.01320897006472923
2316,0.013432559256484894
2317,0.013353309251294415
2318,0.012961289610958897
2319,0.013250101495657094
2320,0.012641530896562983
2321,0.013318661506566453
2322,0.01425969898458253
2323,0.015003717795064861
2324,0.01557081293153523
2325,0.015580667148796641
2326,0.015637015918249546
2327,0.01535223690970263
2328,0.015582806122822555
2329,0.015502965582912413
2330,0.015393026496813119
2331,0.015589372568948384
2332,0.016597263350988427
2333,0.017432546500467546
2334,0.017722581554245487
2335,0.01781209733076631
2336,0.01766768844631524
2337,0.01776188060521541
2338,0.018145053766989636
2339,0.01793155554608853
2340,0.018146512574145776
2341,0.01874525899179974
2342,0.01951094832807435
2343,0.020162053769008217
2344,0.020216673888178882
2345,0.020505803697645014
2346,0.020322647666066538
2347,0.021335528872683692
2348,0.022158094086221065
2349,0.02269799638549885
2350,0.022936713967608668
2351,0.02275701532456168
2352,0.022940670971311687
2353,0.02401935691526867
2354,0.02475583526077735
2355,0.025015936297027204
2356,0.025295937110887342
2357,0.025504751416953263
2358,0.025410013564369133
2359,0.026462195327368685
2360,0.027116033775126322
2361,0.027500769783085608
2362,0.027854957248950558
2363,0.027751774806451728
2364,0.027614915095321133
2365,0.028667756255960387
2366,0.02954994609915089
2367,0.03011888528289872
2368,0.030318478575151953
2369,0.030725426369585362
2370,0.03136803458534591
2371,0.032154848756132406
2372,0.032535458973545456
2373,0.03266973665138377
2374,0.0336341369102135
2375,0.03443451775616202
2376,0.034882411866797115
2377,0.03594176665866086
2378,0.03692323025392895
2379,0.03715924528006731
2380,0.038284733378970204
2381,0.0393908812606964
2382,0.03956430982948797
2383,0.04058355822390958
2384,0.04179467450276708
2385,0.04318350007596629
2386,0.04386107870695734
2387,0.04466645129809324
2388,0.04581866654779569
2389,0.04743290359376249
2390,0.048689374745378655
2391,0.04909743102543307
2392,0.05056363543822998
2393,0.05107644319174531
2394,0.05180951844508688
2395,0.05278372407650811
2396,0.053519894104633405
2397,0.05414878961811735
2398,0.05439206645304066
2399,0.05461527201623159
2400,0.05581334032339443
2401,0.05634008134250151
2402,0.05685649875329523
2403,0.05688765656943645
2404,0.057596012209175984
2405,0.05843873046630379
2406,0.058891642243671084
2407,0.05910488771195786
2408,0.05932559247210375
2409,0.0592391333021224
2410,0.05937393985066662
2411,0.05940618223917955
2412,0.059180405212741025
2413,0.059309854454257085
2414,0.05882812247834099
2415,0.05918566800484937
2416,0.059194816213551125
2417,0.05896153088990789
2418,0.059235279551054745
2419,0.05915196562953904
2420,0.059180447548933375
2421,0.05939886226874143
2422,0.05819552641163319
2423,0.057427882493280444
2424,0.05704198328597816
2425,0.05661169457252696
2426,0.056731197369761614
2427,0.056787681996789435
2428,0.05595322751800874
2429,0.05503161388220701
2430,0.05445645641050786
2431,0.054253474486998965
2432,0.05426481312754285
2433,0.05429475990519586
2434,0.05426993228459012
2435,0.054441060342400135
2436,0.054369624458843295
2437,0.05438657640393027
2438,0.05417568822882061
2439,0.054243094583550935
2440,0.05434977543227992
2441,0.0542522798099727
2442,0.05406157388287944
2443,0.05408915069627978
2444,0.05438678330114325
2445,0.0544106301355685
2446,0.05526363913983507
2447,0.05620909652678377
2448,0.056456181485021656
2449,0.05665080176593171
2450,0.05702217028301093
2451,0.05809679915913608
2452,0.05869864618724261
2453,0.059398671228037936
2454,0.06073858951311883
2455,0.06135995995836945
2456,0.061966342816833234
2457,0.0631359876991434
2458,0.06477136843134496
2459,0.06583433679684628
2460,0.06638133375784971
2461,0.0675375114559302
2462,0.06822173041083993
2463,0.06878978208363397
2464,0.06960039664051615
2465,0.07095290231870414
2466,0.07123427863250761
2467,0.0713614419058797
2468,0.07182957300903225
2469,0.07283268059304811
2470,0.07375511750685736
2471,0.0737634658102229
2472,0.07392192052003575
2473,0.07391970125133518
2474,0.0734353686880465
2475,0.07261173609373887
2476,0.07194792875930406
2477,0.07180328396430719
2478,0.07138550406542017
2479,0.0706231453030823
2480,0.06976996563014592
2481,0.06912417435947611
2482,0.06825553051238076
2483,0.06741860238013518
2484,0.06694381968629265
2485,0.06582662453846201
2486,0.06466643387980253
2487,0.06282616778191208
2488,0.06123325101892527
2489,0.060071430670811436
2490,0.05916305002839961
2491,0.05824020419438637
2492,0.05697341119376085
2493,0.055440499700259986
2494,0.053827863066104736
2495,0.05253233181141743
2496,0.051886494051097146
2497,0.05102390577472371
2498,0.04994670155353655
2499,0.048339538207135706
2500,0.04666058758833081
2501,0.045114252399252236
2502,0.04330529773423544
2503,0.041872122848950526
2504,0.03993609140821413
2505,0.03911470483458741
2506,0.03614727668937426
2507,0.03337469277702537
2508,0.03147836710471436
2509,0.029611594366328237
2510,0.028134766113698355
2511,0.026445484230484824
2512,0.024877643829968172
2513,0.02318074224028936
2514,0.021563113631372196
2515,0.020853477135873547
2516,0.020052462829118652
2517,0.018934854424950295
2518,0.017678551672467752
2519,0.016114415907960603
2520,0.01463459509457484
2521,0.012557084229157259
2522,0.011097507584641668
2523,0.01089941662414037
2524,0.009858677782398196
2525,0.008525131234529689
2526,0.007008140279780276
2527,0.006266007747620719
2528,0.005565038465360302
2529,0.004336327964372808
2530,0.0036476318099715344
2531,0.002989920170792613
2532,0.0018414464893637145
2533,0.0010731008663271945
2534,0.0003666572515817802
2535,-0.0005661574541933312
2536,-0.001067568060277501
2537,-0.0017411225093003058
2538,-0.003015701903048801
2539,-0.0035949899539172254
2540,-0.004279713493009539
2541,-0.0055701637704166146
2542,-0.005971736496536335
2543,-0.006915679540885519
2544,-0.008040121580563142
2545,-0.008505001726446127
2546,-0.00883148696655599
2547,-0.008969513780325239
2548,-0.00982043485899988
2549,-0.010927424700692459
2550,-0.011227638994539811
2551,-0.011367239822263338
2552,-0.01158105227677845
2553,-0.012785160785919882
2554,-0.013482273799514671
2555,-0.013471277011673171
2556,-0.01388976957846978
2557,-0.013463831152535537
2558,-0.014167212400980681
2559,-0.015104420787295215
2560,-0.015801939902501887
2561,-0.016159382542310943
2562,-0.01618611419912977
2563,-0.01610776634431288
2564,-0.01624797875741105
2565,-0.016283200698029368
2566,-0.016393042070997323
2567,-0.016439597454417795
2568,-0.01629734009384291
2569,-0.015396151046531841
2570,-0.014806484776806418
2571,-0.014102751354778793
2572,-0.013925332326482255
2573,-0.013771082214988522
2574,-0.013712526022604952
2575,-0.012824416788694334
2576,-0.011752077002800104
2577,-0.011853280774150583
2578,-0.011210827096612638
2579,-0.011531083879052037
2580,-0.011311229307939841
2581,-0.01117022518002081
2582,-0.011325666327108493
2583,-0.011471196611654553
2584,-0.01044802609432201
2585,-0.009541044440616243
2586,-0.009097423893430507
2587,-0.008870776352096366
2588,-0.009149126200735084
2589,-0.008964076578866354
2590,-0.009011055936714774
2591,-0.009212226011660959
2592,-0.008748585598189423
2593,-0.009051573386411726
2594,-0.00879111110219665
2595,-0.009042447125857658
2596,-0.008855640907575353
2597,-0.008863758834559757
2598,-0.008917218609869387
2599,-0.008811544284099455
2600,-0.008951684477820883
2601,-0.009034776086346856
2602,-0.00888758568212503
2603,-0.00874073629283703
2604,-0.00892919132147624
2605,-0.008873809624484114
2606,-0.00882125475450602
2607,-0.008913216295016003
2608,-0.009097844899202902
2609,-0.009003197908185042
2610,-0.008966323496819632
2611,-0.008917417631701653
2612,-0.008916620989999567
2613,-0.008738235876391914
2614,-0.009003695607318262
2615,-0.009022066214279664
2616,-0.00896218364084292
2617,-0.00933706101729641
2618,-0.00916850979654509
2619,-0.008926362118947028
2620,-0.009866744202862675
2621,-0.010533263639727779
2622,-0.011327312956447505
2623,-0.01143421151359411
2624,-0.01144772097198359
2625,-0.011103378068506796
2626,-0.01119872987290801
2627,-0.011393104796337716
2628,-0.011676392702176911
2629,-0.011296805225641172
2630,-0.01153047154346972
2631,-0.011318747781563478
2632,-0.012103086044482183
2633,-0.013192933138630904
2634,-0.013586241220571397
2635,-0.013854670524804219
2636,-0.013720122076350483
2637,-0.013690925774196266
2638,-0.013501881377370054
2639,-0.013867833691906813
2640,-0.01391977381899784
2641,-0.014690043713754888
2642,-0.015531044761375333
2643,-0.015914967416467467
2644,-0.01622686559360104
2645,-0.016279052053777485
2646,-0.016244827061807156
2647,-0.017386540994470186
2648,-0.018072231915178292
2649,-0.018504279396387747
2650,-0.018648969561292684
2651,-0.01869042108586056
2652,-0.01900374932062073
2653,-0.018429104009362242
2654,-0.019090199749247343
2655,-0.02027346833923413
2656,-0.020875228770957224
2657,-0.02111169535012932
2658,-0.02109637200421355
2659,-0.02107831259602581
2660,-0.021335996146117083
2661,-0.02136821646498084
2662,-0.021288547893350503
2663,-0.02096760298318832
2664,-0.021535372357544175
2665,-0.021126680980014974
2666,-0.021250323954351197
2667,-0.02124342514945755
2668,-0.02178572467623225
2669,-0.02282429157639575
2670,-0.023497653298190847
2671,-0.023640906344616026
2672,-0.023832761242318735
2673,-0.023537752742051915
2674,-0.02370325605245248
2675,-0.0238285916701861
2676,-0.023674386444896726
2677,-0.023821011713085302
2678,-0.023786669028165217
2679,-0.023843329197837777
2680,-0.02390429401968673
2681,-0.023724350590651755
2682,-0.023678020311461212
2683,-0.023502079098282905
2684,-0.023866303227159432
2685,-0.02364568254672286
2686,-0.02362372985050488
2687,-0.023449460591236763
2688,-0.023805185231571668
2689,-0.023702225302794963
2690,-0.02345894688677818
2691,-0.023753971437272575
2692,-0.023473236457869015
2693,-0.023534159619727088
2694,-0.02355935788027843
2695,-0.02364636252987504
2696,-0.02371711169381797
2697,-0.023663401325826432
2698,-0.02353083410958092
2699,-0.023489803660353366
2700,-0.024059905267353205
2701,-0.023601554307987188
2702,-0.0237795464426427
2703,-0.023665750693010135
2704,-0.023662515313573274
2705,-0.023567113645580683
2706,-0.02354768780916505
2707,-0.022515688580665636
2708,-0.021968590931365255
2709,-0.021169156909918833
2710,-0.021319107897513838
2711,-0.0210983888947384
2712,-0.021162561935194703
2713,-0.02106474776113087
2714,-0.020981783147240904
2715,-0.021186718848645494
2716,-0.021088944772835686
2717,-0.02125606458832951
2718,-0.021035368010645563
2719,-0.02113830591349434
2720,-0.02111983829319509
2721,-0.021060865799395555
2722,-0.02118873756512529
2723,-0.020935526928563382
2724,-0.021032639130673422
2725,-0.02129146251128825
2726,-0.021353003954602597
2727,-0.021512960462199672
2728,-0.02123191110783981
2729,-0.021132227403660737
2730,-0.021334238304700683
2731,-0.021259091185071393
2732,-0.02137705676928518
2733,-0.02114509194813871
2734,-0.02129533714723862
2735,-0.021298813976106515
2736,-0.02123564923773467
2737,-0.021034106044716464
2738,-0.02107061675641798
2739,-0.02107314687117919
2740,-0.021384511926316442
2741,-0.020820019068163564
2742,-0.019764548342443677
2743,-0.019176839733397105
2744,-0.01890084588993521
2745,-0.01889176985126323
2746,-0.018600953363665622
2747,-0.018687244400048625
2748,-0.01897814314003518
2749,-0.018899132689875288
2750,-0.018734232695382717
2751,-0.0190040203611983
2752,-0.018617449675801326
2753,-0.018932318803650657
2754,-0.01893655813504041
2755,-0.018625542787093708
2756,-0.018697703242997927
2757,-0.017364150897111328
2758,-0.0166243894264691
2759,-0.01645827149510109
2760,-0.01616101258315347
2761,-0.0161712885105406
2762,-0.016267737589949108
2763,-0.016210997894208403
2764,-0.016162027382237553
2765,-0.01617637255218564
2766,-0.0162958618323388
2767,-0.016152208551545536
2768,-0.01628953220249918
2769,-0.01630071317021123
2770,-0.01623086992144024
2771,-0.016332042526306895
2772,-0.016133611566889125
2773,-0.01638456848679049
2774,-0.016136079140826914
2775,-0.01628812499494601
2776,-0.015521644071020817
2777,-0.01462059833541066
2778,-0.014172518126704094
2779,-0.013867625780562819
2780,-0.013967422659722811
2781,-0.013856953333664915
2782,-0.013675848749083891
2783,-0.013650072069647499
2784,-0.013984708137239656
2785,-0.01353381388131188
2786,-0.013706630349263572
2787,-0.01405219820362632
2788,-0.013827707334782452
2789,-0.01356955899527914
2790,-0.012354301795607052
2791,-0.011852713854590462
2792,-0.011493564267520693
2793,-0.011276040094237601
2794,-0.011371335954814401
2795,-0.011416183826663467
2796,-0.011194426303366188
2797,-0.01155985632904393
2798,-0.011439509796874404
2799,-0.011283442789742538
2800,-0.011401807077152092
2801,-0.011013638908943286
2802,-0.010267907427942981
2803,-0.009466280538531666
2804,-0.009008469638344388
2805,-0.009120956576046245
2806,-0.00901007681882848
2807,-0.00898403863742875
2808,-0.008919383414702818
2809,-0.00838960772568508
2810,-0.007424390133802277
2811,-0.006776406514922778
2812,-0.006488980860868516
2813,-0.006313411511180882
2814,-0.006235202609596677
2815,-0.006295435849122025
2816,-0.006603872297608007
2817,-0.006745862271123304
2818,-0.006471008606419216
2819,-0.006429326444169687
2820,-0.006480192373285163
2821,-0.00650137834126623
2822,-0.0058462682438423785
2823,-0.004879108781497799
2824,-0.004608107857191431
2825,-0.0040925896002588814
2826,-0.004183762680640112
2827,-0.004157998459026279
2828,-0.003931685126859992
2829,-0.004113521313316551
2830,-0.004117423618979087
2831,-0.004122769005426043
2832,-0.00399212698380803
2833,-0.003945080597639666
2834,-0.004067442949628798
2835,-0.004134311633886872
2836,-0.004082334690319311
2837,-0.003845376411452121
2838,-0.0038370378082855723
2839,-0.00392207966434781
2840,-0.0038624526200788036
2841,-0.0041533199350998595
2842,-0.0038399617013427506
2843,-0.0040396532326160695
2844,-0.003720761984033106
2845,-0.003934176120289701
2846,-0.003967683378680466
2847,-0.004005023369775297
2848,-0.004030846218701507
2849,-0.004226004753412693
2850,-0.004052545733995504
2851,-0.004993654298112405
2852,-0.005740491238553079
2853,-0.00631845370244199
2854,-0.006231967114699499
2855,-0.006657668702441829
2856,-0.007881080081832548
2857,-0.008725673528667004
2858,-0.009347655777584304
2859,-0.010520311448256487
2860,-0.0106646798725631
2861,-0.011722891013496363
2862,-0.01282438244086995
2863,-0.014142445415414633
2864,-0.016176267333138882
2865,-0.01724823371947973
2866,-0.018888186933981605
2867,-0.020937557498732776
2868,-0.022459132815487896
2869,-0.02473704483546624
2870,-0.02735586336054173
2871,-0.029483929741543936
2872,-0.03226735293855394
2873,-0.03471591262361929
2874,-0.03691963456630469
2875,-0.03941330421496389
2876,-0.04259998138760474
2877,-0.045721285235869685
2878,-0.04895161989350012
2879,-0.05201146990239596
2880,-0.05417368594868043
2881,-0.05672418940029028
2882,-0.059313685636171606
2883,-0.061257092027062796
2884,-0.0639310215743164
2885,-0.0664867472893534
2886,-0.06859576393405158
2887,-0.07042655237816847
2888,-0.07218303995602282
2889,-0.0737676545477233
2890,-0.07539807366664923
2891,-0.07654149151745186
2892,-0.07710073586426525
2893,-0.07755209161846711
2894,-0.07769261667517863
2895,-0.07902097004261356
2896,-0.07961065552892724
2897,-0.07976750026918521
2898,-0.08009996969534519
2899,-0.07984519292169358
2900,-0.07983097824695419
2901,-0.0799102457605609
2902,-0.07977867067707481
2903,-0.07948818961164518
2904,-0.07870600993214714
2905,-0.07766764335118116
2906,-0.07751078469159542
2907,-0.0775214413553535
2908,-0.07748045956736285
2909,-0.07733737549026105
2910,-0.0772641972880931
2911,-0.07664099853783808
2912,-0.07583521499782916
2913,-0.07495848772089055
2914,-0.07432378468696184
2915,-0.07302041095602282
2916,-0.07131717433599846
2917,-0.06972042958378333
2918,-0.06758001425694615
2919,-0.06491271677469451
2920,-0.06281211748640812
2921,-0.06033849469045331
2922,-0.05771038864754381
2923,-0.05463593710697031
2924,-0.050780062360892796
2925,-0.04680850622578793
2926,-0.04288319253566483
2927,-0.03869899959234083
2928,-0.0343825989474054
2929,-0.02958108201734207
2930,-0.024932224910137836
2931,-0.019895401817975347
2932,-0.014989626246128084
2933,-0.009746583409579257
2934,-0.0038899390423164865
2935,0.00169185494005073
2936,0.007056638888820801
2937,0.013279320892892249
2938,0.019669385432887546
2939,0.025927355802135576
2940,0.03282008057063608
2941,0.039126263077770916
2942,0.0458499519224076
2943,0.05342813907044887
2944,0.061286343029976036
2945,0.06948952728031574
2946,0.07858153919166964
2947,0.08878996252938395
2948,0.09873452621243346
2949,0.10958711542671362
2950,0.12070222417788665
2951,0.13247964197297185
2952,0.14377297455514318
2953,0.15472967677841917
2954,0.16661256682205813
2955,0.17942784664151304
2956,0.19295967088613694
2957,0.20705179336474444
2958,0.22161078661894312
2959,0.23734104104486253
2960,0.25322856287208717
2961,0.2696949142716584
2962,0.28674795607207354
2963,0.30445866170446373
2964,0.3234852209214563
2965,0.34379965512577715
2966,0.36443422543027315
2967,0.3857607150793337
2968,0.4076102214650986
2969,0.4304755574679113
2970,0.4541222359280585
2971,0.4786613357064625
2972,0.5033261592996371
2973,0.5274222576698538
2974,0.5527322240226105
2975,0.5785205521451906
2976,0.6042720954893102
2977,0.6307211370708915
2978,0.6568444660787365
2979,0.6826285719128268
2980,0.7083872779364137
2981,0.734563780397525
2982,0.7606403452939707
2983,0.7861981342211637
2984,0.8106707126640255
2985,0.8348770172751572
2986,0.8585063569948047
2987,0.8818901745105778
2988,0.9033081786391634
2989,0.925197050646027
2990,0.9453145795600149
2991,0.9629404745457242
2992,0.979360466884018
2993,0.9941260255071274
2994,1.0074308715611935
2995,1.0195500186114184
2996,1.0284438371433358
2997,1.0351176492475516
2998,1.0407364898812559
2999,1.0446394521974174
3000,1.0461948182035565
3001,1.0462811301402457
3002,1.0446204707636229
3003,1.0415899011502399
3004,1.0371081450459592
3005,1.030875934137351
3006,1.0233284683783181
3007,1.0145572566438594
3008,1.0049931893516262
3009,0.9937205948283536
3010,0.9815132664367422
3011,0.9672897955829185
3012,0.9527756753322617
3013,0.9375958707266813
3014,0.9211359280937748
3015,0.9035076539489115
3016,0.8852567161361937
3017,0.8659665223114439
3018,0.8462932610692805
3019,0.8271230370892402
3020,0.8068448404469705
3021,0.785986495059722
3022,0.7644090546282304
3023,0.7422570995953808
3024,0.7204824726029003
3025,0.6996900673326053
3026,0.6777204150678641
3027,0.6556224710694964
3028,0.6329366444519094
3029,0.6100539028854794
3030,0.587483288222115
3031,0.5653838806669418
3032,0.5438754316460919
3033,0.5212230108775143
3034,0.4985939374338521
3035,0.47607009229282016
3036,0.45423023178760213
3037,0.4328551605616804
3038,0.41172376425177193
3039,0.39071850546963455
3040,0.3695769568613473
3041,0.3482479290001286
3042,0.3271322561093283
3043,0.3070608914875673
3044,0.2867160047746567
3045,0.26728374233270835
3046,0.2467832205269892
3047,0.22642861979633722
3048,0.20757401002637235
3049,0.1887059469405295
3050,0.16940031561748106
3051,0.14976914658892962
3052,0.13108938744561036
3053,0.1127499072361917
3054,0.09468255621858539
3055,0.07680592973803062
3056,0.05862273092851488
3057,0.04104315660973937
3058,0.023487235761940506
3059,0.0052949843863742685
3060,-0.01244498646548329
3061,-0.029764749326485408
3062,-0.04615257172367485
3063,-0.06283789784762782
3064,-0.07922748015848244
3065,-0.09550261281544775
3066,-0.11195268861688379
3067,-0.12801879051064202
3068,-0.1437946591551502
3069,-0.1590505801068334
3070,-0.17391735663394614
3071,-0.18820507123437696
3072,-0.20206762564299488
3073,-0.21520374019786162
3074,-0.2283726207461857
3075,-0.24147739418757588
3076,-0.253599616396599
3077,-0.26525128077487137
3078,-0.2766928236295805
3079,-0.2880830706179416
3080,-0.2991696384722705
3081,-0.30944901191229074
3082,-0.31949444504991403
3083,-0.3292398125725744
3084,-0.3377765297457425
3085,-0.3458799271170227
3086,-0.3542549270377211
3087,-0.36218617524533653
3088,-0.36953646983267546
3089,-0.3768692935398532
3090,-0.3845582551214648
3091,-0.39085705500827256
3092,-0.3966570517222426
3093,-0.40267096124484764
3094,-0.40830699359323264
3095,-0.4137193382966248
3096,-0.4187089507540047
3097,-0.4224851381774907
3098,-0.42609021252469
3099,-0.42959061306980595
3100,-0.43182742570310517
3101,-0.43398287703811284
3102,-0.4359963972608912
3103,-0.4372953367673422
3104,-0.4387617663785458
3105,-0.43915870346539676
3106,-0.44015897617651895
3107,-0.4407238550607861
3108,-0.4404198131401789
3109,-0.43977070446734856
3110,-0.43903520110167327
3111,-0.4378140413507117
3112,-0.43638021949304434
3113,-0.43497035347377594
3114,-0.4333492109706328
3115,-0.43081219995377
3116,-0.42830521761445317
3117,-0.42580348429831455
3118,-0.42346424066147365
3119,-0.42054447979335524
3120,-0.41745581416487854
3121,-0.41407927362525526
3122,-0.4108035221787978
3123,-0.40741452179711096
3124,-0.4030986796067766
3125,-0.3990982403778985
3126,-0.39554404732260284
3127,-0.3910693319559862
3128,-0.3867777188442631
3129,-0.3819095413074478
3130,-0.37788014394261704
3131,-0.37367701860041846
3132,-0.36938429774658926
3133,-0.3647574816041689
3134,-0.3598749153284313
3135,-0.35478564570914406
3136,-0.3491016307759282
3137,-0.343199320103241
3138,-0.3380361521694511
3139,-0.3331127453655318
3140,-0.32819845605132253
3141,-0.32195143605841076
3142,-0.31638796674827896
3143,-0.31057364817996524
3144,-0.3048606582252041
3145,-0.29921473706455
3146,-0.2934958755357623
3147,-0.2876268591357305
3148,-0.2820608488383091
3149,-0.277152116661267
3150,-0.2718507135866982
3151,-0.26613371449692647
3152,-0.26024140660129846
3153,-0.2548188725704341
3154,-0.24913399721005283
3155,-0.24293522920707578
3156,-0.23797657780255516
3157,-0.23299680451867802
3158,-0.22786151482584313
3159,-0.2231200608547933
3160,-0.21795584458350006
3161,-0.2132220758458149
3162,-0.20844301176874708
3163,-0.20429229611076258
3164,-0.200227383056873
3165,-0.19591787823163742
3166,-0.19185276950266184
3167,-0.1879856637036217
3168,-0.18354966141542559
3169,-0.1799152132203608
3170,-0.17647508729497108
3171,-0.1727293555001754
3172,-0.16941585535792605
3173,-0.1665903219344447
3174,-0.16332900113607157
3175,-0.15965555198278486
3176,-0.1564593299398274
3177,-0.15320273204328938
3178,-0.15091618618937463
3179,-0.14871917424484696
3180,-0.1457950252994184
3181,-0.1437325574784749
3182,-0.1412966793405472
3183,-0.1383138411119348
3184,-0.13622783314630857
3185,-0.13401901261229662
3186,-0.13230827483121382
3187,-0.13006338386317126
3188,-0.12747844894217852
3189,-0.1251378841844215
3190,-0.12325032190879491
3191,-0.122033223999203
3192,-0.12046562053972533
3193,-0.11885326873542623
3194,-0.11715211295266562
3195,-0.11524056398587118
3196,-0.11395859491232536
3197,-0.11201168084919227
3198,-0.11039557259218276
3199,-0.10883678410048403
3200,-0.10757973967355984
3201,-0.10690304813668837
3202,-0.1059077192461853
3203,-0.10450925149794546
3204,-0.10274721634513391
3205,-0.10149628951849168
3206,-0.10000031255149408
3207,-0.09962842761548342
3208,-0.0984609788760019
3209,-0.09713082080823836
3210,-0.09585191813338438
3211,-0.09513276871109716
3212,-0.09437281633867048
3213,-0.0930543488083666
3214,-0.09178728861696914
3215,-0.09041206152239699
3216,-0.08987858098503224
3217,-0.08913261803906768
3218,-0.08797792808632499
3219,-0.08744989762604087
3220,-0.08659121498526529
3221,-0.08545184794293091
3222,-0.08463672902155915
3223,-0.08389606758758265
3224,-0.08306393078541292
3225,-0.08222686974335892
3226,-0.08147388702899477
3227,-0.0804924738038151
3228,-0.0797021844310874
3229,-0.0788536704387961
3230,-0.0781195373790778
3231,-0.07781486515964808
3232,-0.07662634475395526
3233,-0.0757284009452307
3234,-0.07530085879083877
3235,-0.07439069166506299
3236,-0.07340644277193173
3237,-0.07280720755392617
3238,-0.07235611715950194
3239,-0.07208925056690109
3240,-0.07132458168483188
3241,-0.07061788534156602
3242,-0.07008554783019592
3243,-0.06886404774205038
3244,-0.06802441740532661
3245,-0.06768536070265699
3246,-0.06770699011339476
3247,-0.0670507248065244
3248,-0.06612796670935306
3249,-0.06537437605466978
3250,-0.06464199014489341
3251,-0.06334982010088944
3252,-0.06294235403440644
3253,-0.06257630687094692
3254,-0.06214158480547726
3255,-0.061266917673159844
3256,-0.060436133700806444
3257,-0.060553947464619874
3258,-0.06028373474413417
3259,-0.05917298923196522
3260,-0.05832998430350506
3261,-0.05791268365200663
3262,-0.057747030334896754
3263,-0.05769738781531098
3264,-0.057615867936834965
3265,-0.056913011169349034
3266,-0.055918744747239915
3267,-0.05554072152760167
3268,-0.055625332867721075
3269,-0.05472262748142438
3270,-0.053977918903846345
3271,-0.05328669023813306
3272,-0.052994198487744365
3273,-0.052812650083508744
3274,-0.05295359580650234
3275,-0.05249149915914425
3276,-0.05189800847508623
3277,-0.05100207845247904
3278,-0.050650850014196336
3279,-0.050576725947321294
3280,-0.05033304040229633
3281,-0.0501433502556888
3282,-0.0489929749540838
3283,-0.048409890032862564
3284,-0.04817147307018955
3285,-0.047948134781185994
3286,-0.04837685096768417
3287,-0.04746719597442682
3288,-0.04640809219911945
3289,-0.04595837364178658
3290,-0.045826506788473
3291,-0.04588055078122962
3292,-0.04576585877970727
3293,-0.04527722507317365
3294,-0.044566060947569666
3295,-0.04381435700626121
3296,-0.04339295610779648
3297,-0.043144334660069915
3298,-0.043084829026264454
3299,-0.042738129104472125
3300,-0.04179895248952643
3301,-0.04116541951285046
3302,-0.04095194613821165
3303,-0.04070919621298101
3304,-0.04090189123529421
3305,-0.040656649143655986
3306,-0.03922333618028307
3307,-0.03884141468752114
3308,-0.03829265756327742
3309,-0.038209796517037126
3310,-0.03823904325471397
3311,-0.03814297987986827
3312,-0.038113370863654183
3313,-0.037338372889366124
3314,-0.03652391857478975
3315,-0.03606719766385633
3316,-0.03576872934493366
3317,-0.03579394102625269
3318,-0.03587148638037953
3319,-0.0351061460062096
3320,-0.03409355401206378
3321,-0.03370227157413737
3322,-0.033704678532554516
3323,-0.03337085275392368
3324,-0.03332928620172303
3325,-0.03333701866326374
3326,-0.03288938803708644
3327,-0.03194194135887135
3328,-0.031397145292474095
3329,-0.03110277388846789
3330,-0.03086786207823479
3331,-0.03086064261904072
3332,-0.030860790192316863
3333,-0.030779117246084807
3334,-0.03108554212627776
3335,-0.030543580430198246
3336,-0.029762046829065296
3337,-0.02897665854790667
3338,-0.028744432492680848
3339,-0.02880653257771335
3340,-0.028451384084716983
3341,-0.028603315696578206
3342,-0.028565465293502894
3343,-0.028516423517136374
3344,-0.02870050325095921
3345,-0.028452269512115335
3346,-0.028243976633182
3347,-0.02802616866883465
3348,-0.027135124103957804
3349,-0.02638831494139883
3350,-0.026212576805416936
3351,-0.025966201012623653
3352,-0.025796665181904228
3353,-0.02588828145701577
3354,-0.026041641342329107
3355,-0.026239251499818643
3356,-0.025625275727878587
3357,-0.025071608063717266
3358,-0.024216841252633018
3359,-0.023633707428694674
3360,-0.023571777781443662
3361,-0.0237770096327319
3362,-0.023513989944358844
3363,-0.02355929800982713
3364,-0.023711010702874208
3365,-0.023328571709797706
3366,-0.02230497804759939
3367,-0.021562628622974454
3368,-0.021048129389622257
3369,-0.02113954194568832
3370,-0.02122360735177032
3371,-0.021230392532126732
3372,-0.021036510758926787
3373,-0.021373177826916962
3374,-0.0207193993407058
3375,-0.0197548468790774
3376,-0.019087596720315694
3377,-0.01909224833638546
3378,-0.018744624605491346
3379,-0.018594043146883867
3380,-0.018928361989335948
3381,-0.018866767701365136
3382,-0.01861480432065002
3383,-0.01868725050122233
3384,-0.01883772298136444
3385,-0.018801677594123278
3386,-0.018540995503531936
3387,-0.017357278308623263
3388,-0.016433552902156437
3389,-0.01642598277937233
3390,-0.01638252526566127
3391,-0.01643186727094149
3392,-0.016230019489770958
3393,-0.016256725367468187
3394,-0.01621710349196557
3395,-0.016114026965613034
3396,-0.01637839132631282
3397,-0.015179299986069874
3398,-0.014237638073745765
3399,-0.013870745991361377
3400,-0.013875167003469052
3401,-0.013704640320108784
3402,-0.013928570923267599
3403,-0.0138647335681767
3404,-0.013709444405927834
3405,-0.013695716452820987
3406,-0.012981034927322752
3407,-0.012191175032142914
3408,-0.011723122791599766
3409,-0.011238527169744165
3410,-0.011499796185329486
3411,-0.011371007049392099
3412,-0.011458021791476656
3413,-0.011739299351560133
3414,-0.011336756110011734
3415,-0.011130785565636155
3416,-0.011531296678471999
3417,-0.01120589044407328
3418,-0.0106001499521794
3419,-0.00960232169753163
3420,-0.009000352127704893
3421,-0.009137530941911668
3422,-0.00895470486260517
3423,-0.009161791267684604
3424,-0.008915023466220381
3425,-0.008947811682668262
3426,-0.008986175287859437
3427,-0.008377194041545785
3428,-0.0073383600970402365
3429,-0.006624070471806324
3430,-0.006519177693410678
3431,-0.006760655177942389
3432,-0.0065353767076341265
3433,-0.00643976901647481
3434,-0.006153533054857544
3435,-0.0052008226546494665
3436,-0.0044251619545026405
3437,-0.004202015964827542
3438,-0.003785054049331299
3439,-0.003980536259408728
3440,-0.0037869793678167204
3441,-0.00253885881059252
3442,-0.0020539353348170493
3443,-0.001691438392911583
3444,-0.0018936335139574146
3445,-0.0015876570947383195
3446,-0.0018657960865968186
3447,-0.001426116672300036
3448,-0.0007899945632173202
3449,0.0001408127050368479
3450,0.0006726666541024787
3451,0.000807430122096085
3452,0.0007783813652549433
3453,0.0008715425075301476
3454,0.0007229816827999834
3455,0.0006428818114607795
3456,0.0007855167623400612
3457,0.0015559830014419984
3458,0.0024306381677119755
3459,0.003089468043338125
3460,0.0032475751878057375
3461,0.003376488115016888
3462,0.003338211476779031
3463,0.003005538481984737
3464,0.0037246558816966154
3465,0.004279684834303294
3466,0.0054358639784321495
3467,0.005675331164107524
3468,0.005235192447459332
3469,0.006037047825852505
3470,0.00579671334633431
3471,0.00554061244181435
3472,0.006686309121215444
3473,0.0075113381825665
3474,0.007801102989433796
3475,0.007934586184479146
3476,0.008004961695293493
3477,0.008308089105238425
3478,0.009146278671134867
3479,0.009859139195261286
3480,0.010289501138623132
3481,0.01032278575739421
3482,0.010596997557954025
3483,0.010538444967867116
3484,0.010427631265554887
3485,0.010987189987257912
3486,0.011859007371503399
3487,0.012718371210935674
3488,0.013083305420185945
3489,0.012791421190028822
3490,0.012928974325160427
3491,0.013702341703001343
3492,0.01465341237106071
3493,0.014873966039065501
3494,0.015335675439508168
3495,0.015335625967448736
3496,0.015746534460375508
3497,0.015540972572015076
3498,0.01548340599399566
3499,0.01642553388053063
3500,0.017295142687341593
3501,0.017548488000504504
3502,0.017775836935509336
3503,0.018321578697983183
3504,0.01792526849046146
3505,0.01818654195808694
3506,0.018040386508058354
3507,0.017941800511738704
3508,0.01877031380234523
3509,0.01985788375482361
3510,0.02011352405128672
3511,0.02045858648653517
3512,0.020340218325596647
3513,0.02043858857319518
3514,0.020369422168780786
3515,0.020477482224224287
3516,0.020495239822635597
3517,0.02042925805044516
3518,0.020645711822001745
3519,0.022138737637319234
3520,0.022432579959518105
3521,0.022646836527297563
3522,0.022910343726705727
3523,0.02302257628729292
3524,0.02292986639969229
3525,0.022769106969246528
3526,0.023780022518167434
3527,0.024325442545030967
3528,0.024913306850668282
3529,0.02524676800292448
3530,0.025243422549117663
3531,0.025314117358539053
3532,0.0254475298702764
3533,0.025442569196670296
3534,0.026659935985152903
3535,0.027465144168399413
3536,0.027709668789414985
3537,0.027705869631439013
3538,0.027660595463461217
3539,0.027897798711113236
3540,0.02779246054930931
3541,0.028524387880701992
3542,0.029453383690560674
3543,0.029781913564835928
3544,0.03028569745306711
3545,0.029977795127570057
3546,0.030312814691971272
3547,0.030296528107965476
3548,0.030594900310632958
3549,0.031722910921495456
3550,0.03229742487471458
3551,0.032727423692679204
3552,0.03269145235015401
3553,0.03264370151523464
3554,0.03258828549730778
3555,0.03258277079632443
3556,0.03350852643115332
3557,0.0343987207540045
3558,0.03484652586433389
3559,0.03490571927585449
3560,0.035211254916972703
3561,0.03526969995171599
3562,0.03517683006698948
3563,0.035250483094083435
3564,0.03524376305691571
3565,0.03508301360492432
3566,0.03564559909579728
3567,0.036334477142255336
3568,0.037316856443307574
3569,0.03729685767292364
3570,0.037242992478300145
3571,0.037564733681126
3572,0.03752553876984035
3573,0.03753891575089279
3574,0.037593345519723084
3575,0.03816686449984441
3576,0.03907725109758989
3577,0.03960579991992223
3578,0.03973231425714998
3579,0.03958870638601443
3580,0.03950374962384148
3581,0.03986157133063739
3582,0.041121477683900405
3583,0.04170233344661548
3584,0.04198854949604057
3585,0.042100395895662675
3586,0.042078554748788854
3587,0.04240205419876888
3588,0.043473082560042016
3589,0.04417751120041754
3590,0.04462414841487858
3591,0.04452913973344496
3592,0.044555886660030096
3593,0.04472465787586218
3594,0.04457881609680246
3595,0.0450929570146609
3596,0.04640303568178242
3597,0.04694768509039816
3598,0.04675658494685305
3599,0.04674870356460846
3600,0.04734857785687197
3601,0.04788858718179112
3602,0.04849147798035245
3603,0.04938706055885709
3604,0.04927088876145922
3605,0.049856119086281465
3606,0.05059386762053953
3607,0.05145308817740417
3608,0.05175925278277515
3609,0.051880334953640854
3610,0.0519672248542498
3611,0.0521912514801756
3612,0.05340695615650571
3613,0.053938187848706874
3614,0.05402516829037008
3615,0.05429229905516666
3616,0.055246709567154495
3617,0.0562405315662675
3618,0.05650913445613964
3619,0.05666493675147315
3620,0.057306349621114604
3621,0.05794209126629479
3622,0.05899620211802421
3623,0.0591192390932332
3624,0.05921955006488262
3625,0.060385046916296314
3626,0.06093242779956649
3627,0.06159987222996702
3628,0.06162140009749199
3629,0.06198526707640657
3630,0.06293418274980732
3631,0.06392786492679703
3632,0.0640347093781059
3633,0.06378695445002142
3634,0.06492131244872461
3635,0.06607636987020533
3636,0.06633687153003695
3637,0.06743385480075632
3638,0.06783405210663866
3639,0.06898188527192263
3640,0.06967267745077645
3641,0.07075288520391725
3642,0.07155288147500423
3643,0.0714684572464704
3644,0.07201972226624971
3645,0.07268541825064215
3646,0.07369561644480405
3647,0.07456960333108888
3648,0.07558617111067369
3649,0.075820249771185
3650,0.07654680100105887
3651,0.07758849471264481
3652,0.07821201581258237
3653,0.079202157375487
3654,0.08012096907543075
3655,0.08111071385044029
3656,0.08116325700846151
3657,0.0812802669876595
3658,0.08218322142954079
3659,0.08280065463019046
3660,0.08345694389662495
3661,0.08442811844397977
3662,0.08569760059952596
3663,0.08606746787538344
3664,0.08703864788959892
3665,0.08786435777034289
3666,0.08822201173292386
3667,0.08861301681201487
3668,0.08898235891941549
3669,0.0898819935288686
3670,0.09074032459564596
3671,0.0914102631338354
3672,0.09258614819733565
3673,0.09325992796361861
3674,0.09380317429871773
3675,0.0950208897776368
3676,0.09536537085227682
3677,0.09618096280669136
3678,0.09746756700243796
3679,0.09783330081762007
3680,0.09868616429283686
3681,0.09964619555763822
3682,0.10049612750130625
3683,0.10079193092513904
3684,0.10238797085894766
3685,0.10283450805633342
3686,0.1032435748242313
3687,0.10462496582113581
3688,0.10538466203464521
3689,0.10553436499252228
3690,0.10562787574967718
3691,0.10625647140992185
3692,0.10745133439521638
3693,0.1079853555591414
3694,0.10879240067407056
3695,0.10989115839528493
3696,0.11040196810660569
3697,0.11134791399774815
3698,0.11266025109141259
3699,0.11304691819761849
3700,0.11396206413904993
3701,0.114790601105862
3702,0.11552256076721616
3703,0.11523139856701498
3704,0.11572347667828191
3705,0.1170579840950356
3706,0.11716979436933186
3707,0.11837911555961841
3708,0.11943297639307435
3709,0.12001922802544591
3710,0.12032596465053357
3711,0.12052931609688883
3712,0.12149926189520967
3713,0.12234274190447636
3714,0.12265511134474286
3715,0.1233588755626415
3716,0.1247020811193032
3717,0.1253187419670717
3718,0.12538563929977567
3719,0.12585543074482752
3720,0.12679194741293348
3721,0.1273409160362489
3722,0.1280477898085498
3723,0.12919740774473054
3724,0.1299041749936323
3725,0.1301283969640248
3726,0.13008881397652514
3727,0.13114488180435852
3728,0.1319318888244446
3729,0.13228236696422147
3730,0.1324736231877355
3731,0.1329148064218902
3732,0.1340534002846342
3733,0.13468905732368244
3734,0.13501400754230952
3735,0.1351109388434981
3736,0.13593664088772772
3737,0.13685394305690754
3738,0.1373147518786531
3739,0.1374086761001409
3740,0.13781236072229738
3741,0.13750004249809478
3742,0.1384699943447516
3743,0.139481463579671
3744,0.1395450568760795
3745,0.1397490075827267
3746,0.14004973678586138
3747,0.13984300615060352
3748,0.13988737692651623
3749,0.14027342050460373
3750,0.14141489615512925
3751,0.14168328743573383
3752,0.14264736247285623
3753,0.14253495727075238
3754,0.14244122427515477
3755,0.14241417150505314
3756,0.14267210851340506
3757,0.14246070562013904
3758,0.14270594920325083
3759,0.1438287161408166
3760,0.144639656565826
3761,0.14474459462181824
3762,0.1447834623056836
3763,0.14489541620076987
3764,0.14467893825369613
3765,0.14501830569508048
3766,0.14483286064310297
3767,0.14525955695071388
3768,0.14632209828557913
3769,0.1465439082541543
3770,0.14721847287974188
3771,0.14721981073247514
3772,0.1473295778495134
3773,0.14733766065446996
3774,0.14730953277078224
3775,0.14715044729102866
3776,0.147297858216476
3777,0.14756621454078667
3778,0.14844598366707037
3779,0.14925761206141902
3780,0.14984029070959157
3781,0.1497026859815919
3782,0.1498805718195187
3783,0.1500087068937531
3784,0.14983635155873132
3785,0.1497147758209391
3786,0.14975403133693077
3787,0.14964133587456505
3788,0.14991736530797758
3789,0.14974682267134465
3790,0.14966430553736912
3791,0.14981086263024543
3792,0.14958955222954856
3793,0.1495292926611274
3794,0.15003470168633776
3795,0.14999822108066088
3796,0.1496654054337666
3797,0.14979398392921442
3798,0.14999071140330575
3799,0.1497513389116666
3800,0.14990127282531007
3801,0.14962363244261617
3802,0.14972598722280434
3803,0.14995751870263024
3804,0.14969269764320106
3805,0.14981511906472933
3806,0.1497537275433737
3807,0.14998496594263763
3808,0.14940806672168397
3809,0.1496943052883253
3810,0.14985587262516775
3811,0.1496727562728343
3812,0.14972138457374815
3813,0.14966788020356178
3814,0.1496780985553833
3815,0.14955593059663638
3816,0.1499603254917638
3817,0.14971115429519125
3818,0.1495891507846866
3819,0.14984020998404274
3820,0.1496502819068784
3821,0.14957036960776215
3822,0.14819052868412813
3823,0.14750913400146046
3824,0.14754886979659607
3825,0.14743998833712005
3826,0.1473514000891086
3827,0.14704039722500875
3828,0.14583135997827001
3829,0.1453071729144515
3830,0.14490194171771667
3831,0.1450491614561035
3832,0.14488342204434637
3833,0.144490903117913
3834,0.14357495461703343
3835,0.14295819007606392
3836,0.14223953616982232
3837,0.14097012907062634
3838,0.14024923983875334
3839,0.1396912431000456
3840,0.13852331409162758
3841,0.1380132461260041
3842,0.13738620741054267
3843,0.13621947395978357
3844,0.1355358480245071
3845,0.13492528169189924
3846,0.13353605329600696
3847,0.13290489283461698
3848,0.132478561164245
3849,0.1314291205221251
3850,0.13001670211588967
3851,0.12840604597925306
3852,0.12796432684719322
3853,0.12699327261339763
3854,0.1256663961040601
3855,0.12401925199640162
3856,0.12237762139381354
3857,0.12102330036049277
3858,0.1191232017376496
3859,0.11750791565599975
3860,0.11612626991258629
3861,0.11414412516464154
3862,0.1125362031658315
3863,0.11086093519029544
3864,0.10965667982483504
3865,0.10785280967851602
3866,0.10595494063170048
3867,0.10439778011347582
3868,0.10275633690131297
3869,0.1014414979825436
3870,0.09968895111220404
3871,0.09805123799942551
3872,0.09604690973359797
3873,0.09316348560861629
3874,0.0911393049595171
3875,0.08909294921115694
3876,0.08705204475028781
3877,0.08569619120985407
3878,0.08389595509198158
3879,0.08242606890226055
3880,0.08025368930698343
3881,0.07733083511956615
3882,0.07536938758415657
3883,0.07355647554214388
3884,0.07179390347301474
3885,0.07020562100790104
3886,0.06780548515141348
3887,0.06520251379672726
3888,0.06317751785765567
3889,0.06118699196126068
3890,0.05923007615191081
3891,0.05666210661819307
3892,0.054043200045958716
3893,0.052250025358294525
3894,0.04925361286248545
3895,0.04689560962349021
3896,0.04503113685653203
3897,0.04303400317638579
3898,0.040943079164130515
3899,0.038477993629650736
3900,0.036651474692663215
3901,0.03379618485145075
3902,0.0314116200326093
3903,0.02912085526566218
3904,0.026493834610650198
3905,0.023750179561462886
3906,0.02029086931410921
3907,0.017994333015338305
3908,0.015382540416708487
3909,0.012843894688985575
3910,0.010913092040792188
3911,0.008701258786984013
3912,0.005669294101027586
3913,0.0022200318850912385
3914,-0.000256085966262426
3915,-0.002742467353807356
3916,-0.005469408611713632
3917,-0.007943196836514939
3918,-0.009790621722679865
3919,-0.012219870853540218
3920,-0.015563856923334196
3921,-0.018762909612855705
3922,-0.0212250908768843
3923,-0.02353242209060096
3924,-0.02600436380367162
3925,-0.028298257361464303
3926,-0.030475250659189154
3927,-0.03345029294996751
3928,-0.035781718538828035
3929,-0.03820584931380009
3930,-0.040980768031480604
3931,-0.043421858250396496
3932,-0.045482155832874044
3933,-0.04828081673494026
3934,-0.05048264184727984
3935,-0.052585784852623704
3936,-0.05576361447775463
3937,-0.05803286580952319
3938,-0.05978403980646956
3939,-0.06173272356623826
3940,-0.06433533111928637
3941,-0.06675012026356343
3942,-0.0690609292141822
3943,-0.07037375233489847
3944,-0.07254367812275021
3945,-0.07542812256661184
3946,-0.07732659297668112
3947,-0.07924243082336171
3948,-0.08107127035197421
3949,-0.08257112596799752
3950,-0.08428311081731633
3951,-0.0862001310016373
3952,-0.088444891065314
3953,-0.09079393041618217
3954,-0.0930638501014344
3955,-0.09472472633144668
3956,-0.09678509754923842
3957,-0.09852450552170937
3958,-0.09983284045097539
3959,-0.10130569116663486
3960,-0.10299245497360662
3961,-0.10468749384731046
3962,-0.10640970526726037
3963,-0.10784446052102899
3964,-0.10948576816920304
3965,-0.1114845112960627
3966,-0.11461112008361195
3967,-0.11692276467793655
3968,-0.11853517311992738
3969,-0.1202107410754235
3970,-0.12202010912092204
3971,-0.12336755692143316
3972,-0.1250072814903347
3973,-0.12691164840274638
3974,-0.12855381218732218
3975,-0.12977075396046328
3976,-0.13148210191081341
3977,-0.1329846396120329
3978,-0.13330754782014834
3979,-0.1343954162696355
3980,-0.13576963377634574
3981,-0.13705030320872616
3982,-0.13889095574684507
3983,-0.14090587184551923
3984,-0.142232424381992
3985,-0.1440250837598295
3986,-0.14498671413922684
3987,-0.1456441193664909
3988,-0.14699321375859548
3989,-0.14815006568584851
3990,-0.14996641754029963
3991,-0.15035582990415525
3992,-0.15118332130380802
3993,-0.15224017950138116
3994,-0.15399841210441087
3995,-0.1550919180703064
3996,-0.15574786822224915
3997,-0.15644459840519098
3998,-0.15740103991974758
3999,-0.15816922487707558
4000,-0.15889581914308254
4001,-0.15995718009271057
4002,-0.16032338076729294
4003,-0.16141309227239853
4004,-0.1626330090865467
4005,-0.1626519253506724
4006,-0.16382439565525905
4007,-0.16479679846506895
4008,-0.1651595320714425
4009,-0.16628827635598858
4010,-0.16721989705604345
4011,-0.16737143090090892
4012,-0.16781112298090556
4013,-0.1683568082705185
4014,-0.1695271542173711
4015,-0.16999028370625846
4016,-0.1701763390291219
4017,-0.1704802368287423
4018,-0.17148532013025378
4019,-0.17230391223470767
4020,-0.17256192643935261
4021,-0.17384009247664092
4022,-0.17473448122643612
4023,-0.17485565542111103
4024,-0.17541319467471758
4025,-0.17537404097716047
4026,-0.17520004107432963
4027,-0.17622679276006217
4028,-0.17684183072757884
4029,-0.17768045650802308
4030,-0.1776434501612197
4031,-0.17752724416547502
4032,-0.17748911480026935
4033,-0.1786858004633728
4034,-0.17932391632241984
4035,-0.17973639735840574
4036,-0.18016202878315427
4037,-0.18012240770248142
4038,-0.1801752107657201
4039,-0.18017024886492616
4040,-0.18020150200920004
4041,-0.18045999248915046
4042,-0.18010860699375486
4043,-0.1798773180812448
4044,-0.18017981855174883
4045,-0.1809620563771252
4046,-0.1820102806244182
4047,-0.18220062616488758
4048,-0.1824753813805227
4049,-0.18260659481367736
4050,-0.18234593425243747
4051,-0.18270810621087408
4052,-0.18255064600814722
4053,-0.18270533626372074
4054,-0.1823029999746488
4055,-0.1821814224742993
4056,-0.18257569674054094
4057,-0.1827059863292078
4058,-0.18247048497361776
4059,-0.18253516065745765
4060,-0.18254753838657006
4061,-0.1818710086651501
4062,-0.18118246312460842
4063,-0.18039322284480652
4064,-0.1802786642159024
4065,-0.17993076081744214
4066,-0.18011769208413833
4067,-0.18017655800280505
4068,-0.18007202212336273
4069,-0.18026455525199495
4070,-0.17993517813008209
4071,-0.18003375789684203
4072,-0.17949240991086315
4073,-0.17843919676349249
4074,-0.17804958696481232
4075,-0.17783515191205876
4076,-0.17757092995446708
4077,-0.17778977645981967
4078,-0.17787142472889653
4079,-0.1778481829511311
4080,-0.17769864364313512
4081,-0.17698931273749421
4082,-0.1760628457584399
4083,-0.1754830844469955
4084,-0.17514506868810656
4085,-0.17529194668813444
4086,-0.17521771096381938
4087,-0.17526531777632434
4088,-0.1747366753389897
4089,-0.17417088894093874
4090,-0.17302102121793592
4091,-0.1729324138157287
4092,-0.1727709375758079
4093,-0.17277335432060756
4094,-0.17239206588926262
4095,-0.17148030306761528
4096,-0.1705292549566659
4097,-0.17047790350984596
4098,-0.17022707220041927
4099,-0.17031707449508557
4100,-0.17003757612641163
4101,-0.1688889063773627
4102,-0.16812196180049557
4103,-0.1679250640227224
4104,-0.16808295062776776
4105,-0.1672319602187266
4106,-0.16617628840318407
4107,-0.16565430874152712
4108,-0.16569497246431392
4109,-0.16501362260335214
4110,-0.16429709304571333
4111,-0.16359461242738096
4112,-0.16303062274803423
4113,-0.16306773098798674
4114,-0.1620305699251086
4115,-0.16112917675530333
4116,-0.16038362747948315
4117,-0.16068584618949033
4118,-0.16004767870709316
4119,-0.15896804098327053
4120,-0.1587021827023017
4121,-0.15796474559500498
4122,-0.15813399524171712
4123,-0.15711132267382208
4124,-0.15633375081696982
4125,-0.15593954868743654
4126,-0.15580889875135948
4127,-0.1557831796378732
4128,-0.1556916759337097
4129,-0.15481160269048694
4130,-0.15431470809569797
4131,-0.1535583728636245
4132,-0.15321192803813774
4133,-0.15341336089410676
4134,-0.15328541695240733
4135,-0.15252823170652105
4136,-0.1515381208890659
4137,-0.15093345228548477
4138,-0.1507030807477223
4139,-0.15053817084138257
4140,-0.14962510867276435
4141,-0.14886532632545008
4142,-0.14862641111843455
4143,-0.14834206214008783
4144,-0.14834257042998145
4145,-0.14808498434960082
4146,-0.14697341689397392
4147,-0.1463312050641869
4148,-0.1458120768011854
4149,-0.1458260382343948
4150,-0.14609075668006846
4151,-0.14530199985087677
4152,-0.14433329908832476
4153,-0.143917743164956
4154,-0.1434308261678595
4155,-0.1434461859150366
4156,-0.1426979786483765
4157,-0.1420665681492498
4158,-0.14132109187153002
4159,-0.1409208863132582
4160,-0.14085049955615916
4161,-0.1410230767229716
4162,-0.1400447117119673
4163,-0.13914941967367975
4164,-0.13876999830999434
4165,-0.13848164709522112
4166,-0.13825753036319227
4167,-0.1371124346227891
4168,-0.136546389586776
4169,-0.13614156875460554
4170,-0.13610110755542063
4171,-0.1360953789154568
4172,-0.1357684224120077
4173,-0.1346157682326321
4174,-0.13398216781964334
4175,-0.13384140205914308
4176,-0.13384407622253547
4177,-0.13292222477947838
4178,-0.13181167112734932
4179,-0.1312514221585607
4180,-0.13125080296059094
4181,-0.13087297271388637
4182,-0.13004868617749135
4183,-0.12904437299171737
4184,-0.1290054983195669
4185,-0.12868754345921013
4186,-0.12889551987330947
4187,-0.12845026979417182
4188,-0.1272957668195137
4189,-0.1267928668157014
4190,-0.12652139681351282
4191,-0.12614440798722282
4192,-0.125537906639756
4193,-0.1244245193517542
4194,-0.1242403027410197
4195,-0.12395208436191095
4196,-0.12411266340811325
4197,-0.12381630492242063
4198,-0.12309691793200223
4199,-0.12259754403717217
4200,-0.12182153785979828
4201,-0.12158778549466562
4202,-0.12117995086261672
4203,-0.12009099459600134
4204,-0.11942066854161787
4205,-0.1188822078273186
4206,-0.11881443396003714
4207,-0.1181358690875449
4208,-0.11731190027745846
4209,-0.11668090937330908
4210,-0.11658119993419222
4211,-0.11607995844240762
4212,-0.11535348465160856
4213,-0.1144374105014435
4214,-0.11437056154566244
4215,-0.1142104284314564
4216,-0.11310414827260518
4217,-0.11237338949339407
4218,-0.11178720445325281
4219,-0.11178546059746038
4220,-0.11115524537766712
4221,-0.11023590262611141
4222,-0.1098145209230073
4223,-0.10924970711757703
4224,-0.10923647664667038
4225,-0.10817451131486146
4226,-0.10714802460966402
4227,-0.10674826911318758
4228,-0.1067652635708276
4229,-0.10649612805260614
4230,-0.10541194351461156
4231,-0.1049019509705437
4232,-0.10453011030500498
4233,-0.10430322451542899
4234,-0.10331140035733116
4235,-0.10233223719090853
4236,-0.10240734757250668
4237,-0.10195933692775022
4238,-0.10161410200686727
4239,-0.10073213873435545
4240,-0.09994300846669299
4241,-0.09981167344377012
4242,-0.09936281518734269
4243,-0.09865913684514836
4244,-0.09756544385659076
4245,-0.0973102689318211
4246,-0.0970875605416555
4247,-0.09650580556205397
4248,-0.09576730307810392
4249,-0.09475156602737196
4250,-0.09462737901760944
4251,-0.09453133390802948
4252,-0.09439935150105457
4253,-0.09406216603047965
4254,-0.09340984603274718
4255,-0.09238165889863682
4256,-0.09234314429626413
4257,-0.09210956990225187
4258,-0.09121871215086981
4259,-0.09036154035062124
4260,-0.08989278465148443
4261,-0.08979954692656833
4262,-0.08930217527481682
4263,-0.08810269096830586
4264,-0.08749576880599963
4265,-0.08736949700042125
4266,-0.08719765569390994
4267,-0.086496881215828
4268,-0.08524178627600815
4269,-0.08484342774783261
4270,-0.08493392989645704
4271,-0.08440986634052866
4272,-0.08332869097914909
4273,-0.08243903800540701
4274,-0.08235706566802127
4275,-0.08222758624523334
4276,-0.08144136625746619
4277,-0.08061519136952022
4278,-0.0800749519328198
4279,-0.0797511679445443
4280,-0.07978215251506995
4281,-0.08005787415063507
4282,-0.07878780553726711
4283,-0.07795610004014507
4284,-0.077713968272279
4285,-0.07766915377979718
4286,-0.07690606964383707
4287,-0.07594377135142664
4288,-0.07545066486206226
4289,-0.07514977824008573
4290,-0.07499374820051896
4291,-0.07509399301050934
4292,-0.07456348207057038
4293,-0.07373928432683069
4294,-0.07294210663577567
4295,-0.07269393783249234
4296,-0.07259706559152383
4297,-0.07245468968278632
4298,-0.07214959663256437
4299,-0.07118626108055044
4300,-0.07044047937861048
4301,-0.07017055844264386
4302,-0.07019343706562063
4303,-0.07017903332859747
4304,-0.06968780196554077
4305,-0.06866311928358723
4306,-0.06832805523653636
4307,-0.06801129651188338
4308,-0.067828787590852
4309,-0.0672234764796974
4310,-0.06761370339743795
4311,-0.06759945554332053
4312,-0.0667963223016203
4313,-0.0658715527208939
4314,-0.0653859516393709
4315,-0.0651529516887533
4316,-0.06532354678311417
4317,-0.06563595776818489
4318,-0.06514403653346862
4319,-0.06511496479919118
4320,-0.0650974635723014
4321,-0.06441355786000812
4322,-0.06320778407477093
4323,-0.0629068916836714
4324,-0.06286068877284863
4325,-0.06267173387163869
4326,-0.06275269861410664
4327,-0.06283911064497129
4328,-0.06251775149386983
4329,-0.06258499716649675
4330,-0.06178154895767279
4331,-0.06098591237983551
4332,-0.06063984505142018
4333,-0.060635190786140776
4334,-0.060376500436384116
4335,-0.06048283910375339
4336,-0.06049696603509984
4337,-0.060604344370568136
4338,-0.06049447267510833
4339,-0.05923707110150622
4340,-0.05841543812803155
4341,-0.05809794671822181
4342,-0.05782774106148356
4343,-0.05776605257291389
4344,-0.05807865256928704
4345,-0.058046718920545595
4346,-0.058086504081565994
4347,-0.05762959781538835
4348,-0.05674507206674767
4349,-0.056255611667157826
4350,-0.055601527899895094
4351,-0.055533018427817396
4352,-0.05547911749047431
4353,-0.055436240831538766
4354,-0.05531958977530212
4355,-0.055377588643130596
4356,-0.05556407348190638
4357,-0.055601817446703186
4358,-0.05535906025811921
4359,-0.055245535971522146
4360,-0.05439636029922811
4361,-0.053723120866573826
4362,-0.053083504759866194
4363,-0.0527894980286867
4364,-0.05286474335565087
4365,-0.052824892866107045
4366,-0.05326133749168066
4367,-0.05289038728790539
4368,-0.05296991786425342
4369,-0.05275657197551719
4370,-0.052786115711817405
4371,-0.051487526715060274
4372,-0.05092953635829294
4373,-0.05083696731269355
4374,-0.05052084198553569
4375,-0.05033002367710123
4376,-0.05052960119006062
4377,-0.05050331870014755
4378,-0.05049684027674501
4379,-0.05061347275441887
4380,-0.05050716810363112
4381,-0.04964797561940103
4382,-0.04869204778200739
4383,-0.0484673772874719
4384,-0.048165146866828726
4385,-0.048058943996608296
4386,-0.0481623953943342
4387,-0.047911269616995704
4388,-0.047981531474059945
4389,-0.048148232883497545
4390,-0.04807196987807682
4391,-0.047888523140852464
4392,-0.046576407308131666
4393,-0.0461252410002407
4394,-0.045666307902210664
4395,-0.04586610014633441
4396,-0.045575540346583246
4397,-0.04560385706596475
4398,-0.04558820563739564
4399,-0.04556942310751038
4400,-0.04547872356193119
4401,-0.04430491335933558
4402,-0.04367538484102897
4403,-0.04364622696281812
4404,-0.04354274997227514
4405,-0.042970941813305304
4406,-0.04346807157527613
4407,-0.043282287586369296
4408,-0.043104153779304294
4409,-0.04309110315256989
4410,-0.04316177784122516
4411,-0.043105027893285554
4412,-0.04269001098204208
4413,-0.0418321196905553
4414,-0.04110212765447669
4415,-0.04097666801271981
4416,-0.04060036294766893
4417,-0.040583698323978706
4418,-0.04074189672110739
4419,-0.04111835886991737
4420,-0.04083515913488497
4421,-0.040746890040380554
4422,-0.040931165028348905
4423,-0.04088972997406831
4424,-0.040814028956904384
4425,-0.04059647112235125
4426,-0.04056809591215099
4427,-0.04078088467322831
4428,-0.04080007325282221
4429,-0.04070893375937518
4430,-0.04078376389134464
4431,-0.04052654201219624
4432,-0.039674560217079304
4433,-0.03906051898378068
4434,-0.03847710927861929
4435,-0.03822857918909297
4436,-0.038219867527464466
4437,-0.03858163536028192
4438,-0.03839439872195126
4439,-0.03828967814704304
4440,-0.038540973967982894
4441,-0.038474470718457374
4442,-0.038432134571461794
4443,-0.03834968281481671
4444,-0.03748981792258287
4445,-0.036773771959037166
4446,-0.036238017954570365
4447,-0.03578501905361843
4448,-0.035999402966038464
4449,-0.035725341294612176
4450,-0.03555962746882836
4451,-0.03586641176552731
4452,-0.035989946140760246
4453,-0.03554369087772365
4454,-0.036004299231147965
4455,-0.035673091625201485
4456,-0.03595803568735667
4457,-0.0358576619833391
4458,-0.035924819943837276
4459,-0.03508196050638906
4460,-0.03410531800717857
4461,-0.03359064619757
4462,-0.033645469733555415
4463,-0.033423722719791146
4464,-0.033463691110762965
4465,-0.03327046274555039
4466,-0.0332797155033032
4467,-0.03344736117702016
4468,-0.03348334471744989
4469,-0.03374470449442442
4470,-0.0331501074932402
4471,-0.033386314382481554
4472,-0.0329777254925586
4473,-0.03223661133935163
4474,-0.03128749852471532
4475,-0.031152453935639576
4476,-0.030781311465638846
4477,-0.03090584703537798
4478,-0.031090256424592056
4479,-0.030707566071574457
4480,-0.03095140085289092
4481,-0.030858237896361596
4482,-0.0309659324279669
4483,-0.031125058710061087
4484,-0.030755519112686022
4485,-0.030783518735158756
4486,-0.030849524059520298
4487,-0.03067267553743055
4488,-0.029630469627126958
4489,-0.028666577875715728
4490,-0.028545687118748372
4491,-0.02849328587698117
4492,-0.02844410956967002
4493,-0.02846701175665832
4494,-0.028347926932775824
4495,-0.02860345404857937
4496,-0.028303257293646085
4497,-0.02828620870037182
4498,-0.028837891041452124
4499,-0.028553382745392084
4500,-0.02878359337371285
4501,-0.02867033825458501
4502,-0.028322324034173976
4503,-0.028460651503680656
4504,-0.02858318434685933
4505,-0.02841673005814297
4506,-0.028513890066956513
4507,-0.028534833291796652
4508,-0.028554924513272358
4509,-0.028563440376754096
4510,-0.027459120837596787
4511,-0.02678770789466159
4512,-0.026391154152827223
4513,-0.026062664750812963
4514,-0.02619403763575499
4515,-0.025914459823312152
4516,-0.026001128535844676
4517,-0.026187520143592023
4518,-0.026154256078122277
4519,-0.025993067024526903
4520,-0.02612899735792495
4521,-0.0261370540285144
4522,-0.02592274692651104
4523,-0.026278587970662053
4524,-0.025751162208716843
4525,-0.025114224974541417
4526,-0.024378677409140678
4527,-0.02377856489195061
4528,-0.023588023411790705
4529,-0.023654175780316103
4530,-0.023748918946389478
4531,-0.023753870790197727
4532,-0.02393422932992708
4533,-0.02392155882026587
4534,-0.023868746331660574
4535,-0.023817826796386474
4536,-0.02365677409977708
4537,-0.023665289401702348
4538,-0.023634227034436933
4539,-0.023774272964139875
4540,-0.022698038107028404
4541,-0.021884624133098475
4542,-0.02148689459686177
4543,-0.021110868372274966
4544,-0.02151999256570495
4545,-0.02125249674218692
4546,-0.021363687107381596
4547,-0.021369141593510166
4548,-0.021214972214297242
4549,-0.02103280340900763
4550,-0.021156255445712105
4551,-0.021108252852567056
4552,-0.02096524714960438
4553,-0.021215897165676224
4554,-0.021254172619280153
4555,-0.021253915521046753
4556,-0.02096705159232371
4557,-0.02117106697994377
4558,-0.02113803913628002
4559,-0.02109388779672133
4560,-0.021366876349085902
4561,-0.02113291986932869
4562,-0.020943007944353075
4563,-0.021325297601382607
4564,-0.021081890150891403
4565,-0.021182342840261402
4566,-0.02117988784118393
4567,-0.021106516012780453
4568,-0.02123328471064167
4569,-0.021204244962326736
4570,-0.021403993772838113
4571,-0.021173569398451057
4572,-0.02101132528113961
4573,-0.021135008982707735
4574,-0.02120601840064555
4575,-0.021014293838651516
4576,-0.021281368564757663
4577,-0.020916854486651124
4578,-0.021155693425495534
4579,-0.021088720367338814
4580,-0.021343877136350473
4581,-0.021210310893210682
4582,-0.021275721439254276
4583,-0.0212908059552281
4584,-0.021160516659503834
4585,-0.02087652056455705
4586,-0.02109548735637626
4587,-0.021010033994841817
4588,-0.021233749466825696
4589,-0.02134961802888661
4590,-0.021289830872993926
4591,-0.021177897284201594
4592,-0.02129641570904781
4593,-0.020987313171835553
4594,-0.02147845755494845
4595,-0.021023632559625374
4596,-0.021034704982803853
4597,-0.021004709543470654
4598,-0.02097217964397843
4599,-0.021331388711386692
4600,-0.021203089499852768
4601,-0.02121444773342791
4602,-0.021222571820891815
4603,-0.021344826871684895
4604,-0.02107430482787111
4605,-0.020988475996479378
4606,-0.021328630629777273
4607,-0.02110578425447456
4608,-0.021151111618679
4609,-0.021314226245766035
4610,-0.021170013138376038
4611,-0.02083556121842442
4612,-0.02135680362959153
4613,-0.021081456537982487
4614,-0.021059264035525712
4615,-0.02105914862227559
4616,-0.02105653930895107
4617,-0.02117562539627579
4618,-0.021079822306859886
4619,-0.02136162170605327
4620,-0.02103063438748295
4621,-0.020327603159298043
4622,-0.01940845681226499
4623,-0.018690191615118493
4624,-0.018699501755044735
4625,-0.018760836365760616
4626,-0.018684238580425748
4627,-0.018847035505984253
4628,-0.018456461698934185
4629,-0.018889936645854553
4630,-0.019058235790431175
4631,-0.018795116545985542
4632,-0.018770945145827257
4633,-0.01876485572134872
4634,-0.0187080850997874
4635,-0.018650909266899027
4636,-0.018828171922390915
4637,-0.018924109822860358
4638,-0.018825220603336443
4639,-0.01861443567793425
4640,-0.01871330741125509
4641,-0.018879833769419586
4642,-0.01883759590799378
4643,-0.01876857419520644
4644,-0.0184209522119939
4645,-0.01857211839973239
4646,-0.018897695860695236
4647,-0.018797990348866252
4648,-0.01895056815892568
4649,-0.01873626709930739
4650,-0.01881277213902827
4651,-0.018838550067226473
4652,-0.018412364553079354
4653,-0.017387632465905942
4654,-0.0166528030504687
4655,-0.01644995667421299
4656,-0.016381551892699825
4657,-0.016235627734458146
4658,-0.01627501884150814
4659,-0.01620417936126412
4660,-0.016394626268451545
4661,-0.01639717059987978
