100000,0.35361175650779464
100001,0.40294978638802453
100002,0.44948910336156345
100003,0.4949316022355755
100004,0.5398068037006938
100005,0.5826553077164743
100006,0.6270583937907251
100007,0.6706698363979512
100008,0.7124789280445517
100009,0.7539828439099021
100010,0.7944851178078896
100011,0.8334237438329009
100012,0.8724288419774259
100013,0.9087681804942424
100014,0.9380597674371915
100015,0.9584581941024434
100016,0.9678793435326014
100017,0.9628189899067395
100018,0.9433866607900401
100019,0.9097833075241808
100020,0.8677876165425766
100021,0.8170944120640175
100022,0.7603263965486053
100023,0.6984852240163328
100024,0.6367014684081727
100025,0.57366830078336
100026,0.5122184307102217
100027,0.4524470282950345
100028,0.3957560945949465
100029,0.340714918798285
100030,0.28812950542081534
100031,0.23690302875541688
100032,0.18735501974796956
100033,0.1398337213940724
100034,0.0954593469391286
100035,0.05166661257089044
100036,0.010887897472549734
100037,-0.027034714344142136
100038,-0.06147651615223536
100039,-0.09222749452590046
100040,-0.1203988340671008
100041,-0.14503193720346336
100042,-0.16659892377540186
100043,-0.18497591980837613
100044,-0.19991517921741284
100045,-0.21253690505982467
100046,-0.2224497750724416
100047,-0.22935930468332444
100048,-0.23491891101518436
100049,-0.23881440686218924
100050,-0.23893827854117305
100051,-0.2378414465211331
100052,-0.2351900180915967
100053,-0.23215261788261388
100054,-0.22860001928238763
100055,-0.2234407474997682
100056,-0.22083239331591925
100057,-0.21611652674065354
100058,-0.21347945361848525
100059,-0.20962704278043967
100060,-0.20730950490870356
100061,-0.20504940548762257
100062,-0.20257927915123042
100063,-0.19999964447975974
100064,-0.19740564990859666
100065,-0.19522633801867117
100066,-0.19295187927194996
100067,-0.19267542400763188
100068,-0.19038660521774584
100069,-0.18886072588095773
100070,-0.18755923967367855
100071,-0.18734920730493906
100072,-0.18565637888624553
100073,-0.18524169921875
100074,-0.18382532333769638
100075,-0.18237125282751948
100076,-0.1824951171875
100077,-0.18139827784844778
100078,-0.1800537109375
100079,-0.17906637189692998
100080,-0.17799825594503654
100081,-0.17674882684971233
100082,-0.17515653566759876
100083,-0.17303466796875
100084,-0.17274385524441763
100085,-0.1705788985183197
100086,-0.17038322045238902
100087,-0.1681231284938549
100088,-0.1665685220386951
100089,-0.16551477000473325
100090,-0.16326904296875
100091,-0.1618239316457235
100092,-0.16084200092374298
100093,-0.1598259232839659
100094,-0.15821927808611563
100095,-0.15580660096364707
100096,-0.155487060546875
100097,-0.15361291109175965
100098,-0.15210139682102272
100099,-0.15072810551837232
100100,-0.14931171815653738
100101,-0.14731370936426869
100102,-0.14477717692293918
100103,-0.1434326171875
100104,-0.14143460868225755
100105,-0.13972740960060956
100106,-0.13881188182634852
100107,-0.13652306303643544
100108,-0.13496845069732466
100109,-0.13337618305091375
100110,-0.13153076171875
100111,-0.13026695779868258
100112,-0.12890803342773935
100113,-0.1268149043280805
100114,-0.12506460086362714
100115,-0.1228045169416812
100116,-0.1214599609375
100117,-0.12007230212912771
100118,-0.11952833069624316
100119,-0.11702054402961133
100120,-0.11656278021423264
100121,-0.1145647691258149
100122,-0.11410700516691451
100123,-0.11209462499418928
100124,-0.11055437671653859
100125,-0.10922419180584005
100126,-0.10668767371554233
100127,-0.10571466974743228
100128,-0.1032445244676888
100129,-0.10078874812880707
100130,-0.09950167434587628
100131,-0.09862377662115218
100132,-0.09718411638273233
100133,-0.09489529787984465
100134,-0.0944806447617111
100135,-0.09375533047884459
100136,-0.09228693278925615
100137,-0.09203923937276924
100138,-0.09077542411542419
100139,-0.089874267578125
100140,-0.089874267578125
100141,-0.08969293721354023
100142,-0.08769492296789727
100143,-0.0872802734375
100144,-0.08598771197495521
100145,-0.08482449537647019
100146,-0.08522477108666249
100147,-0.0825356767300788
100148,-0.08264514775251446
100149,-0.08221612827674986
100150,-0.080108642578125
100151,-0.08034195499893096
100152,-0.07805313592203753
100153,-0.07752902139660518
100154,-0.07626519910726423
100155,-0.07510198867974313
100156,-0.07408584789557869
100157,-0.07266058300379391
100158,-0.07261746226084935
100159,-0.07293701171875
100160,-0.07150622484842088
100161,-0.07046685725439056
100162,-0.07005221604756741
100163,-0.06903606808789436
100164,-0.0677490234375
100165,-0.06674724800642108
100166,-0.06526449271327299
100167,-0.063018798828125
100168,-0.06172622014433141
100169,-0.060577392578125
100170,-0.0602865921956501
100171,-0.058135986328125
100172,-0.058121610642323664
100173,-0.0579833984375
100174,-0.05825982227311457
100175,-0.05586154408508041
100176,-0.055694580078125
100177,-0.05563707446473784
100178,-0.053253173828125
100179,-0.05183675274141049
100180,-0.05078301391037327
100181,-0.05046346086473635
100182,-0.048355984207232756
100183,-0.04792697492065494
100184,-0.045914577670216374
100185,-0.04574761208465736
100186,-0.044636363478454934
100187,-0.04319675088532086
100188,-0.043139239100999344
100189,-0.04118435234327875
100190,-0.040740966796875
100191,-0.040740966796875
100192,-0.040850419019496494
100193,-0.04075534549637985
100194,-0.03978230292407235
100195,-0.038604736328125
100196,-0.03828518141684107
100197,-0.038285181273328375
100198,-0.03706447800481568
100199,-0.03571994596681301
100200,-0.0357343258144014
100201,-0.03584377444928661
100202,-0.03473251909813169
100203,-0.03337360764306068
100204,-0.03354057538126507
100205,-0.03143310546875
100206,-0.03012611895294692
100207,-0.02851955483822846
100208,-0.02636894337380823
100209,-0.024938128088473527
100210,-0.023679885325224533
100211,-0.022525482681750163
100212,-0.021486129725724695
100213,-0.01947372372118124
100214,-0.0189208984375
100215,-0.018906516580769923
100216,-0.01750446142117371
100217,-0.016617697934378544
100218,-0.0162981397223567
100219,-0.016603315216599322
100220,-0.016436344464673406
100221,-0.014205056545913225
100222,-0.013609087988208824
100223,-0.014176290823320394
100224,-0.013761676452884598
100225,-0.013885498046875
100226,-0.012621644615873959
100227,-0.011320271063942748
100228,-0.011320271350950123
100229,-0.01129150390625
100230,-0.011706115549974184
100231,-0.011429707643987708
100232,-0.011415323204075027
100233,-0.009002685546875
100234,-0.0091552734375
100235,-0.00911211925671027
100236,-0.006866455078125
100237,-0.0067138671875
100238,-0.005545055850912109
100239,-0.00396728515625
100240,-0.003118033036272808
100241,-0.0016496956208988823
100242,-0.0004289922088915076
100243,0.0006103515625
100244,0.0018742127430513998
100245,0.0030373716504791793
100246,0.004301233548567028
100247,0.005631365504078792
100248,0.0067714135576995805
100249,0.00807277146706241
100250,0.008130318841875317
100251,0.010404750608674252
100252,0.01043352522889928
100253,0.012693569542100026
100254,0.012941195795892597
100255,0.014095636326018974
100256,0.015578352584392437
100257,0.017547607421875
100258,0.01777213545079409
100259,0.020265413110781977
100260,0.021572445836825795
100261,0.022778761077688676
100262,0.024762404086351757
100263,0.026731658349783548
100264,0.028482069877268767
100265,0.029964782691418643
100266,0.032239212449075044
100267,0.03376509178586312
100268,0.035138383231999186
100269,0.037107636634399845
100270,0.03842906829485104
100271,0.04064593847939784
100272,0.04197605995867466
100273,0.044112290570937344
100274,0.04555753334914621
100275,0.0469970703125
100276,0.049162082002934544
100277,0.05070235195053788
100278,0.05174168581973365
100279,0.05300556221236038
100280,0.05419748354162506
100281,0.05633371429740045
100282,0.057502570122103774
100283,0.059218493177904105
100284,0.0615073116807918
100285,0.06350534630485899
100286,0.06537957741716591
100287,0.06639012461132088
100288,0.06866455078125
100289,0.06992843133563677
100290,0.07157811332309995
100291,0.07353297051776236
100292,0.07389571778349846
100293,0.07510202828852436
100294,0.07659912109375
100295,0.07646092654065356
100296,0.07832076833374876
100297,0.0787497451870548
100298,0.07877853286667545
100299,0.08090036985439236
100300,0.0812861635379004
100301,0.08217865034777536
100302,0.0833417769654505
100303,0.08379954092433288
100304,0.0856449905279749
100305,0.0860595703125
100306,0.08703267732078206
100307,0.0884865815028543
100308,0.0887773619374332
100309,0.088348388671875
100310,0.08852976754284957
100311,0.08837717993924996
100312,0.0885009765625
100313,0.08862477261170097
100314,0.08851537262672471
100315,0.088653564453125
100316,0.08862477175064282
100317,0.08618336521361744
100318,0.08508645641571673
100319,0.08371316482604095
100320,0.08127175800199017
100321,0.07912112989043803
100322,0.07655592945684973
100323,0.0740857280646861
100324,0.0719350993791012
100325,0.06921731177243336
100326,0.06688529947998202
100327,0.06432010019452229
100328,0.061798095703125
100329,0.06022902214628923
100330,0.05806399452625192
100331,0.05562258755868845
100332,0.05319557923856101
100333,0.05071097604179916
100334,0.047259049290476376
100335,0.04358254040703709
100336,0.04065457146822947
100337,0.03750782236384277
100338,0.034064491432341575
100339,0.029305466370916536
100340,0.02559156623854938
100341,0.02185745673810218
100342,0.017251018706250794
100343,0.013217545580324543
100344,0.009774209195461984
100345,0.004491233640576029
100346,0.0011486998422915566
100347,-0.0027092005409880084
100348,-0.006161119399232279
100349,-0.009771449067153394
100350,-0.013361553867821703
100351,-0.017176251994522863
100352,-0.020061021259874186
100353,-0.023389152248935573
100354,-0.02680369349168853
100355,-0.029855452308834476
100356,-0.03329296433953151
100357,-0.03656932150544914
100358,-0.039454090053192815
100359,-0.0433349609375
100360,-0.04662572263472524
100361,-0.049496087799248245
100362,-0.05166112474744853
100363,-0.055127437804262346
100364,-0.05769262589596613
100365,-0.05988647004114414
100366,-0.06275683362709956
100367,-0.065155029296875
100368,-0.06672411964439871
100369,-0.067596435546875
100370,-0.06750146405934714
100371,-0.06989965815053698
100372,-0.07017602529970032
100373,-0.07038623117203507
100374,-0.07223169096488921
100375,-0.0727556141914675
100376,-0.07266064586118118
100377,-0.07493505940222828
100378,-0.0753207969732861
100379,-0.0750732421875
100380,-0.07496387090452207
100381,-0.0773908719056668
100382,-0.07755786590619876
100383,-0.07752905440391228
100384,-0.07734765443695002
100385,-0.07763842382126768
100386,-0.077667236328125
100387,-0.07752905497795405
100388,-0.077362060546875
100389,-0.07763842267318415
100390,-0.07763842238617677
100391,-0.07752905555198682
100392,-0.0775146484375
100393,-0.077667236328125
100394,-0.07737646809189089
100395,-0.07548778279378926
100396,-0.07521142224609273
100397,-0.07518260615146566
100398,-0.07304637525217757
100399,-0.07250806457201399
100400,-0.07167308337550343
100401,-0.07005225034646988
100402,-0.07005225048997442
100403,-0.07035742641473712
100404,-0.07046678750850038
100405,-0.07017602056387151
100406,-0.07032860831098381
100407,-0.07031419875681723
100408,-0.07002343224271743
100409,-0.06819237741170474
100410,-0.06776343327868296
100411,-0.0677490234375
100412,-0.06787279107172632
100413,-0.06756761500345093
100414,-0.06561279296875
100415,-0.06541697340193976
100416,-0.0652932064852589
100417,-0.0633095637636302
100418,-0.06283738895896872
100419,-0.06071556933598067
100420,-0.060577392578125
100421,-0.059270220934356695
100422,-0.05796898687420159
100423,-0.05799781014431195
100424,-0.05799781028782464
100425,-0.05812157433429667
100426,-0.057707046930932045
100427,-0.05809274948556385
100428,-0.0578163981225176
100429,-0.05755445990136519
100430,-0.057830810546875
100431,-0.05792574701795408
100432,-0.055680167079725826
100433,-0.05555640532941187
100434,-0.05606586403750668
100435,-0.055556405616428245
100436,-0.05415428759943406
100437,-0.05285306502002851
100438,-0.05308617207804268
100439,-0.05320993181919049
100440,-0.051960399970715714
100441,-0.05064476539750545
100442,-0.05067359412100724
100443,-0.0506591796875
100444,-0.05036841862677448
100445,-0.04927147380783783
100446,-0.048341531313043286
100447,-0.048370361328125
100448,-0.04831270014989605
100449,-0.04621971542130507
100450,-0.045943370659707626
100451,-0.045733120012241064
100452,-0.04390206489420298
100453,-0.0433061289132766
100454,-0.043349377093115385
100455,-0.04319678934600308
100456,-0.043487548828125
100457,-0.04362572013260554
100458,-0.04319678977653216
100459,-0.04307303577575954
100460,-0.04321120708023838
100461,-0.04236176495297246
100462,-0.0408935546875
100463,-0.040740966796875
100464,-0.04101730739667808
100465,-0.04063163210896101
100466,-0.04090797256524069
100467,-0.04103172455687162
100468,-0.03975334862929461
100469,-0.03857589971158547
100470,-0.0384521484375
100471,-0.03803764055151046
100472,-0.038299560546875
100473,-0.03843772955518847
100474,-0.0384521484375
100475,-0.03857589798946917
100476,-0.03831397985971561
100477,-0.0383283994595816
100478,-0.038466568037356985
100479,-0.03859031658475532
100480,-0.0384521484375
100481,-0.03814697265625
100482,-0.03721702513859309
100483,-0.0357344070410712
100484,-0.03573440732809659
100485,-0.03599632158306401
100486,-0.035814892053053424
100487,-0.035734408189156436
100488,-0.0360107421875
100489,-0.036039584544439195
100490,-0.036025163509482296
100491,-0.035858154296875
100492,-0.03370750221912633
100493,-0.033402326294363634
100494,-0.03343116994289906
100495,-0.03355491389797225
100496,-0.0311279296875
100497,-0.03082275390625
100498,-0.030960919326818177
100499,-0.0311279296875
100500,-0.03094649628271058
100501,-0.030684588916210898
100502,-0.030989764840981746
100503,-0.02995885213978893
100504,-0.028657676775253747
100505,-0.02870094691213582
100506,-0.028410194892547026
100507,-0.028672099675846947
100508,-0.02819991195529351
100509,-0.026106953345544432
100510,-0.026340008309396496
100511,-0.026092529296875
100512,-0.026092529296875
100513,-0.026063680051452598
100514,-0.02620184288882832
100515,-0.026092529296875
100516,-0.025954366459490275
100517,-0.02625954238425297
100518,-0.026383279737868345
100519,-0.02583062996693305
100520,-0.025954367033532044
100521,-0.0262451171875
100522,-0.025954367320548424
100523,-0.02595436746406927
100524,-0.02623069098617704
100525,-0.02567804465950696
100526,-0.025954367894598346
100527,-0.025954368038102034
100528,-0.026216263636768843
100529,-0.026121383134631544
100530,-0.026230690125118042
100531,-0.026259544393394653
100532,-0.026230689838092652
100533,-0.025830635994358104
100534,-0.026339994532430088
100535,-0.023818138717436422
100536,-0.02363669512343489
100537,-0.023679979180780603
100538,-0.02378928272704351
100539,-0.023636694692905816
100540,-0.023665551544356875
100541,-0.023512963797235564
100542,-0.0238037109375
100543,-0.02366555197488595
100544,-0.023679981189920585
100545,-0.02352739358632097
100546,-0.02367998176397136
100547,-0.02363669354482313
100548,-0.023651123046875
100549,-0.023622263468718787
100550,-0.021391164552663586
100551,-0.021195286720780512
100552,-0.021209716796875
100553,-0.020083880110056528
100554,-0.018964189957370686
100555,-0.018782741197011253
100556,-0.01893532923113994
100557,-0.019030193516667092
100558,-0.018644584817580658
100559,-0.01861572265625
100560,-0.01890646706981829
100561,-0.018644585678638807
100562,-0.019044623018728817
100563,-0.018768310546875
100564,-0.018892034554053045
100565,-0.018659018911955958
100566,-0.019059054099376988
100567,-0.018753878174614293
100568,-0.01778062062430303
100569,-0.016603214759570824
100570,-0.016326904296875
100571,-0.01634133724316932
100572,-0.01658878080870396
100573,-0.015091767938564298
100574,-0.01391436480052179
100575,-0.014023652417163912
100576,-0.013761777483929552
100577,-0.014161806213420062
100578,-0.014009218035769674
100579,-0.012897800231280747
100580,-0.011458526034756543
100581,-0.011124481634230762
100582,-0.011415222747079151
100583,-0.01158224501908938
100584,-0.011734832766201688
100585,-0.011429656841448001
100586,-0.011734832479177153
100587,-0.01170596185074338
100588,-0.011582244301535772
100589,-0.011720396519171157
100590,-0.01156780834152077
100591,-0.011320375539238309
100592,-0.011444091796875
100593,-0.011182224326183625
100594,-0.011305940153273228
100595,-0.011582243296964077
100596,-0.011749267578125
100597,-0.01129150390625
100598,-0.011153352836689997
100599,-0.011320377835387368
100600,-0.011334815230494132
100601,-0.011305941157844071
100602,-0.010180076486581724
100603,-0.008864535194860452
100604,-0.00903156091112129
100605,-0.009002685546875
100606,-0.00901712351602268
100607,-0.008878973881570747
100608,-0.009046000315367184
100609,-0.011044081723707019
100610,-0.011553364057931654
100611,-0.011320381279637975
100612,-0.011458530627081681
100613,-0.0133329023792525
100614,-0.013885498046875
100615,-0.013994768155292733
100616,-0.013623640478370348
100617,-0.013885498046875
100618,-0.013885498046875
100619,-0.0140380859375
100620,-0.012745182921093943
100621,-0.011429651675081096
100622,-0.011167796546238196
100623,-0.010194507854254428
100624,-0.009031566651520958
100625,-0.0091552734375
100626,-0.00914083259816064
100627,-0.009278979362404585
100628,-0.007986070318577737
100629,-0.007701600880632942
100630,-0.008835656242860718
100631,-0.009002685546875
100632,-0.009140831737093486
100633,-0.00883565581233079
100634,-0.009169715424922896
100635,-0.009126389175628821
100636,-0.009126388888603433
100637,-0.008973800710971059
100638,-0.0091552734375
100639,-0.009278975918170285
100640,-0.009140830589018954
100641,-0.009002685546875
100642,-0.009002685546875
100643,-0.00885009765625
100644,-0.009017128969397813
100645,-0.008711953331660506
100646,-0.008988241837335806
100647,-0.009293417475073113
100648,-0.009140829440927265
100649,-0.009126385157347157
100650,-0.0091552734375
100651,-0.009002685546875
100652,-0.008893431368066489
100653,-0.009126384009261915
100654,-0.008878987371513472
100655,-0.009002685546875
100656,-0.009140828292851884
100657,-0.0091552734375
100658,-0.008835652224585502
100659,-0.00898823997169781
100660,-0.007905678875138242
100661,-0.0068375633537378555
100662,-0.006394245400543734
100663,-0.006270549664834953
100664,-0.006699420894777353
100665,-0.006503493551933639
100666,-0.004148766206353055
100667,-0.003676556098251721
100668,-0.004119873046875
100669,-0.004090979026322489
100670,-0.004148767354452898
100671,-0.004258013640198358
100672,-0.00410542560606967
100673,-0.0041343206311930236
100674,-0.0055365072459947085
100675,-0.006575727168210257
100676,-0.006437587435945901
100677,-0.006852006919764356
100678,-0.0065468309950106685
100679,-0.00668497029674595
100680,-0.006823109311455845
100681,-0.007491255373018406
100682,-0.0066994183115939
100683,-0.00640869140625
100684,-0.006837556752280039
100685,-0.006394242099814826
100686,-0.006423140856197867
100687,-0.0067138671875
100688,-0.006590178770803496
100689,-0.006394241525782065
100690,-0.004381698756158653
100691,-0.004119873046875
100692,-0.0039817354672551635
100693,-0.0042724609375
100694,-0.004243559741438899
100695,-0.00398173589778509
100696,-0.004119873046875
100697,-0.0040909709897540445
100698,-0.0037054628911924953
100699,-0.0041343243624518584
100700,-0.004105421587785448
100701,-0.004119873046875
100702,-0.003981736902355933
100703,-0.004243557158262747
100704,-0.004214652805010744
100705,-0.004119873046875
100706,-0.003981737476397701
100707,-0.004119873046875
100708,-0.004119873046875
100709,-0.004243555436146449
100710,-0.0042724609375
100711,-0.003843603341027619
100712,-0.004258007756285997
100713,-0.004119873046875
100714,-0.0041343265151053835
100715,-0.004090965823388845
100716,-0.004119873046875
100717,-0.004119873046875
100718,-0.004134327089138998
100719,-0.004105418861098308
100720,-0.0021073218101712284
100721,-0.0018310546875
100722,-0.0015547881388615335
100723,-0.001678466796875
100724,-0.002971444438485738
100725,-0.003829152312459841
100726,-0.004243550556804931
100727,-0.0043816828265713335
100728,-0.004119873046875
100729,-0.004134328667751609
100730,-0.004090961518114407
100731,-0.00398174106414299
100732,-0.0030373017610861638
100733,-0.001678466796875
100734,-0.001940273562834348
100735,-0.0013877474975679109
100736,-0.0016495535459818036
100737,-0.001692923565835145
100738,-0.0018310546875
100739,-0.00152587890625
100740,-0.001678466796875
100741,-0.0017876826584942611
100742,-0.0017073817698862008
100743,-0.0038580701556798816
100744,-0.004119873046875
100745,-0.004396132994055651
100746,-0.005093232632814473
100747,-0.0065757375009350616
100748,-0.0065901959920024985
100749,-0.008516004892847115
100750,-0.00911189753375961
100751,-0.008726427321810648
100752,-0.008740886530441552
100753,-0.009002685546875
100754,-0.00901714475550505
100755,-0.008014861442411278
100756,-0.0064231509018964315
100757,-0.0062705631547841255
100758,-0.006575739079547672
100759,-0.006575739223051359
100760,-0.006699407117810947
100761,-0.00782536306148024
100762,-0.0091552734375
100763,-0.008864558156468128
100764,-0.010404897849961642
100765,-0.011334886267953526
100766,-0.011705884785883395
100767,-0.012664794921875
100768,-0.011582218469736416
100769,-0.011167838738177553
100770,-0.01132042691582794
100771,-0.010303668321036713
100772,-0.008959300171458948
100773,-0.0065323554262389115
100774,-0.004352738433975579
100775,-0.001678466796875
100776,0.0014745275766118995
100777,0.004526286393637711
100778,0.009242049354729914
100779,0.01168345646575716
100780,0.015178515871319433
100781,0.01775804764610632
100782,0.020003476898780268
100783,0.021420158169171845
100784,0.022735595703125
100785,0.022750059360559342
100786,0.02418120572348518
100787,0.02503887800695973
100788,0.025358518019676833
100789,0.02532958984375
100790,0.025191466328113803
100791,0.025286196288272528
100792,0.022917112917760368
100793,0.022721130897607123
100794,0.022750060652146565
100795,0.023011841299290178
100796,0.02288818359375
100797,0.02296844458658104
100798,0.020737487601928513
100799,0.02043231167716582
100800,0.01903008889785884
100801,0.018143493030773585
100802,0.017003047167315356
100803,0.015396910712507206
100804,0.013108092209619511
100805,0.012941037647838636
100806,0.01081927356322813
100807,0.010499630823805874
100808,0.00853045491683675
100809,0.008072691101449056
100810,0.006212701780059088
100811,0.004396114050740351
100812,0.0034661188877599452
100813,0.002063892090161441
100814,0.0010391795959322017
100815,-0.0002249277042954634
100816,-0.00152587890625
100817,-0.0015548154057672516
100818,-0.003814697265625
100819,-0.004177747194011051
100820,-0.0061179843052877
100821,-0.007425500516608734
100822,-0.008879035590877882
100823,-0.010877147566827885
100824,-0.012460903920937254
100825,-0.013623730459154047
100826,-0.016159846864903297
100827,-0.016326904296875
100828,-0.01621772589136627
100829,-0.016065138431252332
100830,-0.016326904296875
100831,-0.016465021928598837
100832,-0.0164794921875
100833,-0.016341374842792546
100834,-0.016312433607444762
100835,-0.015171964064896442
100836,-0.01362373519496486
100837,-0.014147260468222603
100838,-0.013761852683192306
100839,-0.013871026639891154
100840,-0.013965728185062332
100841,-0.011320447294250455
100842,-0.011429619959361224
100843,-0.010456204548037688
100844,-0.008988213422344845
100845,-0.008973741010789302
100846,-0.006699394775953463
100847,-0.00667044952232231
100848,-0.00640869140625
100849,-0.0065902249810262225
100850,-0.00640869140625
100851,-0.0067138671875
100852,-0.0065468060242703146
100853,-0.0067138671875
100854,-0.006851981518494928
100855,-0.00642316510938376
100856,-0.006684919494207093
100857,-0.006684919207181706
100858,-0.00640869140625
100859,-0.006561279296875
100860,-0.006684918346107254
100861,-0.006532330168474878
100862,-0.006546804589162246
100863,-0.006699392336273698
100864,-0.00669939219277001
100865,-0.006699392049257317
100866,-0.00640869140625
100867,-0.006437642256768128
100868,-0.006561279296875
100869,-0.006561279296875
100870,-0.006684915475923724
100871,-0.005253720176070009
100872,-0.003938332870640961
100873,-0.004396096255490574
100874,-0.004134349476704906
100875,-0.004119873046875
100876,-0.0040764428963361386
100877,-0.0018021009667820386
100878,-0.0016639897930123318
100879,-0.00141672245777554
100880,-0.00152587890625
100881,0.0006248289968998942
100882,0.0010536376564624123
100883,0.000762939453125
100884,0.00091552734375
100885,0.0010536372259324833
100886,0.0006103515625
100887,0.0006248298579588976
100888,0.0010391583564318178
100889,0.0007484608706407154
100890,-0.0004065268631658042
100891,-0.0015693155147519966
100892,-0.003705546414040077
100893,-0.0074255728456193255
100894,-0.0120466484690474
100895,-0.017220158741881902
100896,-0.02354866148427069
100897,-0.03273289639206603
100898,-0.042556443184375035
100899,-0.0558460725565791
100900,-0.07058139403709308
100901,-0.08801985835674184
100902,-0.10572005797462264
100903,-0.1238345794895031
100904,-0.14077183922347766
100905,-0.15609633477961435
100906,-0.16844147591185088
100907,-0.17746642172849605
100908,-0.18223338533376426
100909,-0.1824951171875
100910,-0.18144925547805976
100911,-0.1748300479307685
100912,-0.16479597810877294
100913,-0.150547373160203
100914,-0.13260769334788322
100915,-0.11233574651280931
100916,-0.08676666829481108
100917,-0.057731514672201244
100918,-0.024867180178618893
100919,0.009246824363101713
100920,0.04668879815862652
100921,0.08933324455885758
100922,0.1344480652796691
100923,0.18273826678974586
100924,0.23174795837206164
100925,0.28239368313360474
100926,0.29850536573956465
100927,0.310665912228407
100928,0.35638334372470065
100929,0.4054876873411983
100930,0.45316080150178506
100931,0.49765853745759764
100932,0.5414802413326618
100933,0.5854400487748367
100934,0.6281067281775203
100935,0.6707656703808984
100936,0.7135559661576178
100937,0.7551690135007179
100938,0.7946892863574052
100939,0.8340279998069415
100940,0.8728944631096408
100941,0.9086512235587629
100942,0.9398013729028948
100943,0.964208679812293
100944,0.9786475479068873
100945,0.9783578165305898
100946,0.9634997959917034
100947,0.9350537271815526
100948,0.8967985679179524
100949,0.8482543500834208
100950,0.7937592010702095
100951,0.732164855154783
100952,0.6686737903928754
100953,0.6033371828893168
100954,0.5389885417095674
100955,0.47541732889721544
100956,0.41535563871733994
100957,0.35679085191030996
100958,0.3014593883489512
100959,0.2473776063177999
100960,0.19578839874682163
100961,0.1468801185206435
100962,0.1005803229295785
100963,0.05622070403087655
100964,0.015704761950937236
100965,-0.02314720138570977
100966,-0.059085504020202934
100967,-0.09241532130267778
100968,-0.12211200732719166
100969,-0.14781242692118615
100970,-0.17107143854302834
100971,-0.190864398009
100972,-0.20740953942962964
100973,-0.22077931469963274
100974,-0.23323356147764018
100975,-0.24202569773272622
100976,-0.24943005075623123
100977,-0.25217663379200705
100978,-0.25357209150900833
100979,-0.25371018761422437
100980,-0.2512977642174878
100981,-0.24759217934277533
100982,-0.24481661287964934
100983,-0.24052965900871093
100984,-0.23677292960218857
100985,-0.23290026246822615
100986,-0.22971040826352887
100987,-0.22685471541997634
100988,-0.2233451935050903
100989,-0.22073670600044118
100990,-0.21826631302239813
100991,-0.21695099402775034
100992,-0.21461869528931235
100993,-0.21208267446122478
100994,-0.21078950293757656
100995,-0.2096412679242084
100996,-0.20851517679410353
100997,-0.207061767578125
100998,-0.2060882633340923
100999,-0.2044677734375
101000,-0.20318909226415177
101001,-0.2026077294388005
101002,-0.20106735544641266
101003,-0.19986114683351774
101004,-0.197601318359375
101005,-0.19740524477980098
101006,-0.19500732421875
101007,-0.1947021484375
101008,-0.19270401019919625
101009,-0.19125824002165542
101010,-0.19040069560560804
101011,-0.18878783986808062
101012,-0.18777770842252556
101013,-0.18550338586682483
101014,-0.18382491863941175
101015,-0.18152160318478425
101016,-0.18019180201987087
101017,-0.17802657750407452
101018,-0.17578125
101019,-0.174030297009209
101020,-0.17285308531355123
101021,-0.17057876419295043
101022,-0.16931456791650087
101023,-0.16807936640467017
101024,-0.16584853915304634
101025,-0.16444625179422595
101026,-0.16293487070079363
101027,-0.16055145771123178
101028,-0.15943984717274642
101029,-0.15824814125200726
101030,-0.15594482421875
101031,-0.15577773736721648
101032,-0.1537940946455878
101033,-0.15208662920935034
101034,-0.14965972192024984
101035,-0.1485771068639262
101036,-0.14628828807401312
101037,-0.14367979368088338
101038,-0.1412673867878093
101039,-0.13894956792344285
101040,-0.13623198582313353
101041,-0.13379057928612617
101042,-0.13134917274910077
101043,-0.1289222668951002
101044,-0.126618947565693
101045,-0.12518765238287788
101046,-0.12303691993949785
101047,-0.12147446219456572
101048,-0.12033384010081136
101049,-0.118865966796875
101050,-0.11912763751534063
101051,-0.116729736328125
101052,-0.11668623040428891
101053,-0.11444091796875
101054,-0.11369248077726242
101055,-0.1122611802845767
101056,-0.11056821050850982
101057,-0.10968168797504202
101058,-0.10713120205442017
101059,-0.1055473113749514
101060,-0.1043701171875
101061,-0.10322948562212875
101062,-0.10205229200870111
101063,-0.1007880779370018
101064,-0.09966889997158165
101065,-0.09833216641167888
101066,-0.09706040242125372
101067,-0.0960868587119778
101068,-0.09472807153656851
101069,-0.092315673828125
101070,-0.09211957226411613
101071,-0.08984525817551037
101072,-0.08940199906142998
101073,-0.08741835633980044
101074,-0.0874038510644505
101075,-0.08643030233227535
101076,-0.0848388671875
101077,-0.0850860207192847
101078,-0.08268813101287999
101079,-0.08128582815497688
101080,-0.08013765456391579
101081,-0.0787863964983314
101082,-0.07710040360536034
101083,-0.07622141319537763
101084,-0.07508774875442815
101085,-0.07490614758643414
101086,-0.07289349115688935
101087,-0.07275540983321054
101088,-0.07150569213924529
101089,-0.0701904296875
101090,-0.06891169685052216
101091,-0.0676909931514714
101092,-0.06561279296875
101093,-0.06429053483408527
101094,-0.06285170293546291
101095,-0.06184912657490157
101096,-0.06014864548435693
101097,-0.05929865572286037
101098,-0.05815049490420385
101099,-0.057692731375832536
101100,-0.05583265910565477
101101,-0.0554839561610683
101102,-0.0531005859375
101103,-0.05293348875325069
101104,-0.051988942391714
101105,-0.050521101377515684
101106,-0.05052110152102838
101107,-0.049380437091835705
101108,-0.048188753415160476
101109,-0.04820326328281754
101110,-0.047048086115764956
101111,-0.045638289738581986
101112,-0.046008990042651604
101113,-0.04347303809940163
101114,-0.04329142832079182
101115,-0.04119873046875
101116,-0.039752883656858515
101117,-0.03859022502535901
101118,-0.03843763699122132
101119,-0.03732598684399551
101120,-0.035843642563579935
101121,-0.03566203077582672
101122,-0.03384548767812711
101123,-0.03367838733665258
101124,-0.03126600527078817
101125,-0.030960829346034478
101126,-0.028853623922478214
101127,-0.02824327250349091
101128,-0.028672010556130403
101129,-0.02737874216320627
101130,-0.026121555633664965
101131,-0.026201577251779542
101132,-0.025968968317089024
101133,-0.026078015697942793
101134,-0.026259630929935895
101135,-0.026063501524977824
101136,-0.026107043326337138
101137,-0.02593994140625
101138,-0.024370519550564445
101139,-0.023665637506857205
101140,-0.02349853515625
101141,-0.02134778994049241
101142,-0.02131876001596616
101143,-0.018935413471523974
101144,-0.018506680298235
101145,-0.017656649349378935
101146,-0.01618883187080305
101147,-0.016450460971368517
101148,-0.0140380859375
101149,-0.0140380859375
101150,-0.014052601976094816
101151,-0.012715769537810477
101152,-0.011429575471255653
101153,-0.01158216321836796
101154,-0.010288876886685637
101155,-0.00901720230302342
101156,-0.009169790337161114
101157,-0.007861985096671709
101158,-0.006684832814143296
101159,-0.006452243396823136
101160,-0.006532244349485535
101161,-0.005420575976462868
101162,-0.004090837525434761
101163,-0.004119873046875
101164,-0.0028556157786654977
101165,-0.0016639486056258057
101166,-0.0015549155757557634
101167,-0.00024710186818769925
101168,0.0007919766966635252
101169,0.0020271988739708684
101170,0.003247902429508949
101171,0.005369614276471674
101172,0.007062600556183091
101173,0.008087158203125
101174,0.009198831886006682
101175,0.010710191596446508
101176,0.012802863042639053
101177,0.01409616559095854
101178,0.015273309119378185
101179,0.017947290292186485
101180,0.018310546875
101181,0.02047581831856452
101182,0.02033775134588486
101183,0.0225830078125
101184,0.023178838457063665
101185,0.0250244140625
101186,0.025496698939327715
101187,0.02732775377034041
101188,0.027800039077706205
101189,0.02978368194283858
101190,0.031186016803477934
101191,0.03269737436127153
101192,0.03468101736990759
101193,0.036097875444641346
101194,0.0375511434467944
101195,0.03866282631431735
101196,0.03954930895199656
101197,0.04050840493349237
101198,0.04183812788540432
101199,0.043225942258647135
101200,0.044403076171875
101201,0.04554380819428547
101202,0.047026117314739574
101203,0.0482758680159939
101204,0.049591064453125
101205,0.051422119140625
101206,0.05286803053201274
101207,0.05435033749983049
101208,0.056377553451514684
101209,0.05891345028693162
101210,0.0600541889107909
101211,0.06150744471458201
101212,0.06278624772792848
101213,0.06411596422194678
101214,0.06535119285720825
101215,0.06665185746962916
101216,0.066375732421875
101217,0.06750195027134323
101218,0.06894067496794601
101219,0.07011047150082345
101220,0.07128759709048148
101221,0.07160729938654578
101222,0.07357641602388924
101223,0.0738525390625
101224,0.074993287588555
101225,0.076446533203125
101226,0.07661364803911139
101227,0.078582763671875
101228,0.07859729090425277
101229,0.07973804316153875
101230,0.0809006370700383
101231,0.08116223014959316
101232,0.08077710536626713
101233,0.08103869787179822
101234,0.081329345703125
101235,0.08105322639575421
101236,0.08103869830233545
101237,0.08103869844584814
101238,0.08105322725682866
101239,0.08090063965322905
101240,0.08127122988511613
101241,0.07917858613636825
101242,0.07887341021160554
101243,0.07747106028240355
101244,0.07641747414605334
101245,0.07414318517170147
101246,0.073699951171875
101247,0.0714111328125
101248,0.07028489716781458
101249,0.06769090245313882
101250,0.06636120203228102
101251,0.06447202506884162
101252,0.06203061810127814
101253,0.05932762781287888
101254,0.05577451315057124
101255,0.053042461508906215
101256,0.050724580074212204
101257,0.04722958912288512
101258,0.04344395421509501
101259,0.04079183291917451
101260,0.0377836695761918
101261,0.03531319881576558
101262,0.031803676470309274
101263,0.028933570197822073
101264,0.024479455998210987
101265,0.021870928454261463
101266,0.016988114949672607
101267,0.012272422165036538
101268,0.009387784354862814
101269,0.004643025911634216
101270,0.001053581974581182
101271,-0.0025286066698390693
101272,-0.00753494082790182
101273,-0.01028152343316657
101274,-0.014764708170684688
101275,-0.018245162848464676
101276,-0.022408639118917703
101277,-0.02581642204435432
101278,-0.02941315026308402
101279,-0.033046191683335134
101280,-0.03687542450493818
101281,-0.04066105309832288
101282,-0.044076127337264376
101283,-0.04794166790711363
101284,-0.05164738337597254
101285,-0.05436489529984459
101286,-0.05666824964571856
101287,-0.05909512077026873
101288,-0.06167457949845454
101289,-0.06400700610432482
101290,-0.0665864648324746
101291,-0.06779263225801904
101292,-0.06991432674028808
101293,-0.07218860882614772
101294,-0.07375809798801668
101295,-0.07494972799197122
101296,-0.0770859587477286
101297,-0.07879350010075797
101298,-0.07997059196557718
101299,-0.08212135999942805
101300,-0.08257912395832843
101301,-0.08454822911486441
101302,-0.0847153550011112
101303,-0.08624123419438658
101304,-0.08726573529835566
101305,-0.08767988397878287
101306,-0.08740378447580355
101307,-0.08741832275845159
101308,-0.08714222426005211
101309,-0.0871567632602546
101310,-0.08741832232792252
101311,-0.08770895882196264
101312,-0.08729481272471887
101313,-0.08613946104946717
101314,-0.0848097880390295
101315,-0.08470081901462295
101316,-0.08480978746497872
101317,-0.08471535930640366
101318,-0.08482432703922298
101319,-0.0848243268957193
101320,-0.08281160330347034
101321,-0.08225941362568924
101322,-0.08199786015489673
101323,-0.08225941391270562
101324,-0.08111859377512673
101325,-0.07981800794972287
101326,-0.07981800809323555
101327,-0.07898236158425699
101328,-0.0775146484375
101329,-0.07763815287434574
101330,-0.07536387609834767
101331,-0.07481169244796804
101332,-0.07420850763244406
101333,-0.0723557447581128
101334,-0.07133842059032457
101335,-0.070343017578125
101336,-0.0691585604920662
101337,-0.0677490234375
101338,-0.06773448041902315
101339,-0.06548929140210409
101340,-0.065155029296875
101341,-0.06303334227713908
101342,-0.06282258015991969
101343,-0.060395717215439085
101344,-0.060577392578125
101345,-0.05913138144722078
101346,-0.05812144216156461
101347,-0.057663678346176916
101348,-0.05594157804506791
101349,-0.05578898958039214
101350,-0.05296254278747716
101351,-0.05323862894401915
101352,-0.05185079275726292
101353,-0.05079722240699377
101354,-0.0507390410049504
101355,-0.048370361328125
101356,-0.04832672452314408
101357,-0.04720042587760204
101358,-0.04550028318360338
101359,-0.044620975759988704
101360,-0.04334950711319307
101361,-0.043305868299088474
101362,-0.04116963754329679
101363,-0.04087900808126971
101364,-0.040632019155478954
101365,-0.03970906430707957
101366,-0.03814697265625
101367,-0.038103331115431245
101368,-0.0384521484375
101369,-0.0385901888608357
101370,-0.038176067877853985
101371,-0.038176068164879375
101372,-0.03843760053968163
101373,-0.038299560546875
101374,-0.03846669662234376
101375,-0.03721689698415255
101376,-0.035872702768735144
101377,-0.03598164495677234
101378,-0.03584360553799848
101379,-0.03499337252702549
101380,-0.03326416015625
101381,-0.0334021988574694
101382,-0.03323506149041342
101383,-0.030989891273305124
101384,-0.03111338006755718
101385,-0.030960792033419487
101386,-0.0298781267485816
101387,-0.028824561277653107
101388,-0.028533935546875
101389,-0.028395897993739132
101390,-0.02754565579811587
101391,-0.02592539078173548
101392,-0.025954492174268207
101393,-0.0259835941408427
101394,-0.02593994140625
101395,-0.02412343791729728
101396,-0.023818262279559976
101397,-0.023636571561302333
101398,-0.023665674675951355
101399,-0.023651123046875
101400,-0.023636571130773255
101401,-0.02366567510648043
101402,-0.02251024679690938
101403,-0.021238821490136634
101404,-0.021376857177642653
101405,-0.021180611529564308
101406,-0.019487591668495882
101407,-0.018935451358171727
101408,-0.019073486328125
101409,-0.017641982481744135
101410,-0.01660297337572168
101411,-0.016450385198071293
101412,-0.016326904296875
101413,-0.016036282297355733
101414,-0.015062539396144716
101415,-0.013885498046875
101416,-0.013623984902404426
101417,-0.013979868514409991
101418,-0.013885498046875
101419,-0.013900052689663883
101420,-0.013900052833176576
101421,-0.013762020015860528
101422,-0.013885498046875
101423,-0.014161563394463698
101424,-0.013762020876918676
101425,-0.013856387039164642
101426,-0.014176118180757128
101427,-0.01400897435575688
101428,-0.014176117893740747
101429,-0.013762022312043895
101430,-0.013747466377651493
101431,-0.013870941681960814
101432,-0.014023529429073119
101433,-0.012577455010291592
101434,-0.011306060701693262
101435,-0.011458648735830955
101436,-0.011320618071169285
101437,-0.012679352147847336
101438,-0.012497649661773977
101439,-0.0115966796875
101440,-0.01173470992162359
101441,-0.011306061706255097
101442,-0.011153473959142792
101443,-0.011553005426408545
101444,-0.011182590707227517
101445,-0.011429533422819988
101446,-0.011567562652364588
101447,-0.01140041581366082
101448,-0.012570442249586347
101449,-0.014023526989403219
101450,-0.014023526845898672
101451,-0.013762028626478042
101452,-0.014161555070871572
101453,-0.013776588722641205
101454,-0.013870938381231905
101455,-0.013609441883936577
101456,-0.013762030061568953
101457,-0.01373291015625
101458,-0.013885498046875
101459,-0.01374747053943855
101460,-0.01381269541336878
101461,-0.011582119017286062
101462,-0.01101544975243525
101463,-0.011444091796875
101464,-0.011458652897618013
101465,-0.011414969308381602
101466,-0.011444091796875
101467,-0.011320626968792455
101468,-0.01129150390625
101469,-0.011444091796875
101470,-0.009416763333349096
101471,-0.008879221866877708
101472,-0.008988123298048453
101473,-0.008988123154544765
101474,-0.008864660192092928
101475,-0.009293298648769377
101476,-0.009002685546875
101477,-0.01026707757099101
101478,-0.011320630126019395
101479,-0.01129150390625
101480,-0.011720140784322845
101481,-0.011320630987077543
101482,-0.010593770240245248
101483,-0.009140709610069847
101484,-0.008988121575932154
101485,-0.009126145208606934
101486,-0.008712074023584227
101487,-0.0091552734375
101488,-0.00885009765625
101489,-0.01028164742586079
101490,-0.011720137914106718
101491,-0.011473221747900657
101492,-0.011582114568473618
101493,-0.01116804654070315
101494,-0.011306069312292763
101495,-0.011567548588389088
101496,-0.01129150390625
101497,-0.011705570068409488
101498,-0.0115966796875
101499,-0.011582113563911782
101500,-0.011567547153298177
101501,-0.011458658207488604
101502,-0.011306070460367293
101503,-0.011429525099245014
101504,-0.011473225479160359
101505,-0.010303141639268166
101506,-0.00898811841871594
101507,-0.009264159513109738
101508,-0.0091552734375
101509,-0.008879232773642562
101510,-0.009002685546875
101511,-0.009293293482412339
101512,-0.009140705448274644
101513,-0.0091552734375
101514,-0.01129150390625
101515,-0.011400386537609131
101516,-0.01170556188832105
101517,-0.0115966796875
101518,-0.011473229497443728
101519,-0.011444091796875
101520,-0.0115966796875
101521,-0.0115966796875
101522,-0.011444091796875
101523,-0.01145866136470482
101524,-0.01129150390625
101525,-0.011429521942019794
101526,-0.010484854458048318
101527,-0.008864667798121588
101528,-0.00927872075737445
101529,-0.008864668085146115
101530,-0.009017256119283808
101531,-0.00885009765625
101532,-0.007738269843599433
101533,-0.006423262409187882
101534,-0.00654670815043257
101535,-0.006423262696205124
101536,-0.006147229925403451
101537,-0.004243317783556991
101538,-0.004011000317702593
101539,-0.0042724609375
101540,-0.0040907290318738425
101541,-0.00396728515625
101542,-0.0040761561632971025
101543,-0.004257888499470347
101544,-0.003981857737792346
101545,-0.0038292699906800403
101546,-0.004228742331823817
101547,-0.004076154010660736
101548,-0.0018164815319158853
101549,-0.001816481388412198
101550,-0.0016638933542663585
101551,-0.001387864601746335
101552,-0.0016493193376249551
101553,-0.001678466796875
101554,-0.0014170130655762284
101555,-0.0018310546875
101556,-0.0015404532099176505
101557,-0.002107081574407324
101558,-0.0019690679874409685
101559,-0.00152587890625
101560,-0.0016638919191745876
101561,-0.00152587890625
101562,-0.00152587890625
101563,-0.001678466796875
101564,-0.0014024419191093608
101565,-0.001373291015625
101566,0.0007483637143664387
101567,-0.0003489034280637645
101568,-0.0012498551765678968
101569,-0.0016493144582997285
101570,-0.001678466796875
101571,-0.0018310546875
101572,-0.001402444215274712
101573,-0.0018164779441624504
101574,-0.001816477800649757
101575,-0.001678466796875
101576,-0.0016638896230075158
101577,-0.00152587890625
101578,-0.0014024459373927305
101579,-0.001678466796875
101580,-0.0018018991916814956
101581,-0.0015404567976629395
101582,-0.0016493107270237337
101583,-0.0018456328659383267
101584,-0.0015404572281920142
101585,-0.000690047125851462
101586,0.0006103515625
101587,0.0009009485912789115
101588,0.0006249304584837821
101589,0.0007775184926124694
101590,0.000777518636125163
101591,0.0006249308890128565
101592,0.0007775189231496894
101593,0.000595771948962617
101594,0.0007775192101750765
101595,0.0009009474431962361
101596,0.0007483594090585426
101597,0.0009301075313300115
101598,0.0007921001152923977
101599,0.0009009468691536076
101600,0.00091552734375
101601,-0.0003780795893138666
101602,-0.001663885891749533
101603,-0.0016638857482368396
101604,-0.0015404600983918478
101605,-0.0018164733518454587
101606,-0.0018164732083327652
101607,-0.0008134559850535446
101608,0.00091552734375
101609,0.0009009454340536908
101610,0.0007483573999250033
101611,0.000762939453125
101612,0.0008863626632992326
101613,0.000762939453125
101614,0.00100978472537536
101615,0.0009009445729873964
101616,0.00091552734375
101617,0.0007483563953460155
101618,0.0009009441424664674
101619,0.0006249349072962261
101620,0.0009009438554410804
101621,0.0006103515625
101622,0.0007483556777996995
101623,0.0009009434249120059
101624,0.0007337713284416371
101625,0.000624935768354375
101626,0.00091552734375
101627,0.000762939453125
101628,0.0007775240895084494
101629,0.0007775242330211429
101630,0.0007483545297251697
101631,0.0009009422768374762
101632,0.0017659780594263042
101633,0.003204345703125
101634,0.0030517578125
101635,0.003175174421200126
101636,0.003204345703125
101637,0.002913755849853818
101638,0.0032481039175995346
101639,0.00535516238687106
101640,0.0056311655946162465
101641,0.005645751953125
101642,0.0058275131348002685
101643,0.0078111559999506554
101644,0.008130919000776563
101645,0.008181397789533166
101646,0.006059753966299293
101647,0.00579833984375
101648,0.0054931640625
101649,0.00560198900283707
101650,0.0036183459942010082
101651,0.00335693359375
101652,0.003175169541874898
101653,0.0010535270102462616
101654,0.001024350131450704
101655,0.000762939453125
101656,0.0017659987248707476
101657,0.002928347518232303
101658,0.00332775571036731
101659,0.003327755423359935
101660,0.003218934931833587
101661,0.003204345703125
101662,0.0027903505784249035
101663,0.0030809371309753228
101664,0.0032335253086257097
101665,0.0029575297068911693
101666,0.003189755613358264
101667,0.0033277531271911414
101668,0.003204345703125
101669,0.0031751646625333796
101670,0.0031751643755079926
101671,0.0030809394271243823
101672,0.0034803395827252307
101673,0.0030809400011751567
101674,0.003204345703125
101675,0.002928352684582918
101676,0.0030517578125
101677,0.003204345703125
101678,0.0031897538912338216
101679,0.0033277496829602683
101680,0.0032189378020325596
101681,0.0054931640625
101682,0.005674936724974603
101683,0.0056311594236875045
101684,0.004504673353999057
101685,0.003342340777296124
101686,0.003233531623058139
101687,0.0030517578125
101688,0.003313153852801149
101689,0.003342340203254356
101690,0.0031751586351083253
101691,0.003066351490012025
101692,0.0033423397727252815
101693,0.003066351777037412
101694,0.0030663519205410992
101695,0.0020924477140886215
101696,0.0006103515625
101697,0.00091552734375
101698,0.000762939453125
101699,0.000639541213707411
101700,0.0006249465316073929
101701,0.000762939453125
101702,0.0007337489408577173
101703,0.0008863365444753425
101704,0.0010535196912249778
101705,0.00091552734375
101706,0.0007921311134578064
101707,0.0007483434794459033
101708,0.001053519117192216
101709,0.0004723599325704776
101710,0.00091552734375
101711,0.000762939453125
101712,0.0006249482537245521
101713,0.0006249483972372455
101714,0.000639545518981866
101715,0.0009301244655036265
101716,0.0009009300784836799
101717,0.0009009299349799926
101718,0.0006541442193725365
101719,0.000624949258303539
101720,0.0018894460447289056
101721,0.00303715982968008
101722,0.0013294966366271597
101723,0.000762939453125
101724,0.000900928930400144
101725,0.0008717316731623516
101726,0.0006249502628662369
101727,0.0005161590473907215
101728,0.0028049779808164955
101729,0.003204345703125
101730,0.0032189449775330047
101731,0.002899169921875
101732,0.003218945264549386
101733,0.0033277341838758414
101734,0.003066357660949773
101735,0.00306635780445346
101736,0.0033423334582838465
101737,0.003342333314780159
101738,0.0029283707668400693
101739,0.003080958944506745
101740,0.003509521484375
101741,0.00346571892531574
101742,0.0033277316006851063
101743,0.003218946843161134
101744,0.003204345703125
101745,0.004483454536374533
101746,0.005645751953125
101747,0.005645751953125
101748,0.005522367777682915
101749,0.005355178172970145
101750,0.00579833984375
101751,0.005674956529366064
101752,0.005645751953125
101753,0.005783737268613087
101754,0.005631149234475393
101755,0.007643997393403294
101756,0.008101761208790987
101757,0.008225142944571318
101758,0.0079345703125
101759,0.006793437897149691
101760,0.0057837362640341
101761,0.005522371508939174
101762,0.005812943710482281
101763,0.005522372082989948
101764,0.005631147799376339
101765,0.005921719139850567
101766,0.00563114751235009
101767,0.005631147368846403
101768,0.005783735115958709
101769,0.0056603568244199785
101770,0.0056603569679326724
101771,0.0056311467948046345
101772,0.005660357254949053
101773,0.0054931640625
101774,0.0054931640625
101775,0.00579833984375
101776,0.005769128092018358
101777,0.003480309445617971
101778,0.003218951866007202
101779,0.0030371515061051045
101780,0.003371540043657589
101781,0.003327720406911159
101782,0.0030517578125
101783,0.003022544051610385
101784,0.0013440769677280104
101785,0.0006395658974223767
101786,0.00091552734375
101787,0.0008863124347931371
101788,0.0008717045497766252
101789,0.0006249593040038184
101790,-0.00036360732128002337
101791,-0.0015404869347701994
101792,-0.0013878991876578929
101793,-0.0014025076466981606
101794,-0.00396728515625
101795,-0.0041344816494369675
101796,-0.004119873046875
101797,-0.004105264157296651
101798,-0.00396728515625
101799,-0.003981894332844729
101800,-0.0028699512816601548
101801,-0.0019398141872916698
101802,-0.0016492475826111051
101803,0.00048698317316428193
101804,0.0006395713507966567
101805,0.0009009173060889782
101806,0.0018602750498474306
101807,0.003218956027803265
101808,0.0034510796116111655
101809,0.0011914819015926958
101810,0.0006249623177073396
101811,-0.0004869854693150661
101812,-0.001649244712409547
101813,-0.002027476135334242
101814,-0.0039526738270008925
101815,-0.003981896629011801
101816,-0.004119873046875
101817,-0.0029786990136090904
101818,-0.0016930787001658754
101819,-0.00024672759407174863
101820,0.0009301395340572564
101821,0.0029576192571547995
101822,0.005231825713220912
101823,0.007186243480219475
101824,0.009257562788000176
101825,0.012861221536082566
101826,0.015026678538117745
101827,0.017453472310758944
101828,0.01989487913481317
101829,0.02143537209701743
101830,0.022917410844564345
101831,0.024901053709714734
101832,0.02532958984375
101833,0.02519161600906125
101834,0.02532958984375
101835,0.025177001953125
101836,0.025344204330215322
101837,0.024886440801853017
101838,0.025438333413902874
101839,0.025191616870119397
101840,0.02531497478324291
101841,0.025177001953125
101842,0.02519161730064847
101843,0.02389783686398034
101844,0.022902799228307
101845,0.022844336259567933
101846,0.020708105360279852
101847,0.020279573388038923
101848,0.01855725782189095
101849,0.01796152203744004
101850,0.01597787902877696
101851,0.014132207271646198
101852,0.012940737137860212
101853,0.010957094272709826
101854,0.00912603929820245
101855,0.00825436330691147
101856,0.007098544076004191
101857,0.00579833984375
101858,0.0043373429659817435
101859,0.0029284054962634603
101860,0.0029284057832888472
101861,0.0019397883554661483
101862,0.0009009091260266953
101863,0.0006395882849719963
101864,0.0007921764626223833
101865,-0.0006542075072815671
101866,-0.0015551164897964318
101867,-0.0014171478214827283
101868,-0.0018602928450791936
101869,-0.0038293164879272903
101870,-0.004257841571684153
101871,-0.003996524174889068
101872,-0.006423311059082228
101873,-0.006575899093219921
101874,-0.007840462181269435
101875,-0.009307861328125
101876,-0.0091552734375
101877,-0.009140653067122317
101878,-0.008893959197921129
101879,-0.00886471831365307
101880,-0.009002685546875
101881,-0.00886471860066945
101882,-0.009140652349567856
101883,-0.009126030974628337
101884,-0.0092493758283309
101885,-0.00886471917471122
101886,-0.008973442222928901
101887,-0.007999427370210543
101888,-0.006699245238510569
101889,-0.0063794472212457525
101890,-0.004134495282889818
101891,-0.003996529915288736
101892,-0.003981907679282061
101893,-0.003952662489705245
101894,-0.002230327119181231
101895,-0.0016492208897527286
101896,-0.001678466796875
101897,-0.0018164314469224835
101898,-0.0014171611678956305
101899,-0.0038293207932279037
101900,-0.004257837266393409
101901,-0.0042724609375
101902,-0.004090625130611044
101903,-0.004119873046875
101904,-0.004119873046875
101905,-0.004243212160177895
101906,-0.004119873046875
101907,-0.004119873046875
101908,-0.0042578361183017305
101909,-0.00436654897731717
101910,-0.0038439474780543018
101911,-0.0018456799372273444
101912,-0.0015405042994818948
101913,-0.0015405044429945885
101914,-0.001816429007242718
101915,-0.0016930926206359695
101916,-0.001801802752952674
101917,-0.0015551311278047006
101918,-0.0015405051605400439
101919,-0.0016492140012695253
101920,-0.0015112523649435752
101921,-0.0016638401120558817
101922,-0.0012499567816636236
101923,-0.0016930937687104992
101924,-0.00152587890625
101925,-0.0018018001697782276
101926,-0.0018017998827708527
101927,-0.0015405064521272671
101928,-0.0016930944862731034
101929,-0.0018017990216964183
101930,-0.001678466796875
101931,-0.0019543863382706444
101932,-0.0015405071696808653
101933,-0.0018164262805555778
101934,-0.00152587890625
101935,-0.0019104991083209847
101936,-0.002514550437367483
101937,-0.00413450202786119
101938,-0.00631462001358451
101939,-0.010114688585257712
101940,-0.012599983500341588
101941,-0.018333513644602423
101942,-0.02439314189615981
101943,-0.03272066833379009
101944,-0.04236296756681645
101945,-0.05343707890589656
101946,-0.06764238630738692
101947,-0.08386059740595672
101948,-0.10095044503079945
101949,-0.11788770476499386
101950,-0.13485422619244022
101951,-0.1509846537901773
101952,-0.16421591060475607
101953,-0.17691624650090088
101954,-0.1836510209458167
101955,-0.18868642219746382
101956,-0.1898193359375
101957,-0.1867884793549508
101958,-0.18074975836090434
101959,-0.1712454105748567
101960,-0.15825243779854706
101961,-0.14005057723340508
101962,-0.11690737303199084
101963,-0.08935375070551806
101964,-0.059024278914615556
101965,-0.02478605166788789
101966,0.012503934539441321
101967,0.055040443320635415
101968,0.10212532425776173
101969,0.15212401041221768
101970,0.20571163936670286
101971,0.2571337707059068
101972,0.3097034351509131
101973,0.3613868391110534
101974,0.4102296094523867
101975,0.4590431112120747
101976,0.5077186593712336
101977,0.5548097897392926
101978,0.6010732008042159
101979,0.646485862940309
101980,0.6923855579040054
101981,0.7345144609136783
101982,0.7781546076783169
101983,0.8209879082424985
101984,0.8627677284366001
101985,0.9016044705269982
101986,0.9344965112087886
101987,0.9604280492420851
101988,0.975074305102988
101989,0.9771790750181034
101990,0.9666922263450864
101991,0.9423700052352111
101992,0.9042208263992115
101993,0.855842035149465
101994,0.8000010712622034
101995,0.73945915450445
101996,0.6758885391251482
101997,0.6126878630154702
101998,0.55122420406901
101999,0.4914975640087573
102000,0.4345175077010154
102001,0.37861177458415124
102002,0.32364463948273986
102003,0.271641433773349
102004,0.22148392192166538
102005,0.17405835422332322
102006,0.12826113818678972
102007,0.08538393130641768
102008,0.04492729531652087
102009,0.008444141819707655
102010,-0.027464132634070167
102011,-0.05864218046982664
102012,-0.08641318302201424
102013,-0.1133626865693336
102014,-0.1360104479689455
102015,-0.15682715295890512
102016,-0.17308085982602722
102017,-0.18740948452731707
102018,-0.19888904267322327
102019,-0.20919181764426906
102020,-0.2139721453331938
102021,-0.21671872779498189
102022,-0.21878175279758805
102023,-0.21699462179159368
102024,-0.2156714285456118
102025,-0.21324466304444972
102026,-0.21095584396751127
102027,-0.20848515320617692
102028,-0.20592044214180436
102029,-0.20376956877158905
102030,-0.20228761598650646
102031,-0.200042724609375
102032,-0.19847291785983232
102033,-0.1971435546875
102034,-0.19728149967666958
102035,-0.19529785695503188
102036,-0.19513062573241338
102037,-0.1949926808867655
102038,-0.19386599160688475
102039,-0.19253663073074653
102040,-0.19255127420623558
102041,-0.19142458320423936
102042,-0.189971923828125
102043,-0.1899572796350815
102044,-0.18994263515501258
102045,-0.18779175991919533
102046,-0.18711668777696774
102047,-0.18740721922167056
102048,-0.1862658797213581
102049,-0.18522705416464835
102050,-0.1852124088235213
102051,-0.18411500261990285
102052,-0.182647705078125
102053,-0.1816735952218013
102054,-0.18006835670915525
102055,-0.1790795999330782
102056,-0.17801148412465242
102057,-0.17570801898907837
102058,-0.17315796316798096
102059,-0.1708252050539471
102060,-0.168304443359375
102061,-0.16687256523884217
102062,-0.1652233917073957
102063,-0.16328369003199333
102064,-0.16293457277398793
102065,-0.16081298936848126
102066,-0.16064575384058016
102067,-0.1585095230848048
102068,-0.15695434832996982
102069,-0.1556250005131985
102070,-0.15351806603656418
102071,-0.1520715341078535
102072,-0.15088012711846388
102073,-0.14875854486103174
102074,-0.14828613240380611
102075,-0.14631713832400722
102076,-0.1458300766508586
102077,-0.14372314389636584
102078,-0.14344726640339686
102079,-0.14128173735934046
102080,-0.1398498481885545
102081,-0.1387170422245518
102082,-0.1373937907134881
102083,-0.1361083984375
102084,-0.13509032055505893
102085,-0.1335583549582807
102086,-0.13283080091451374
102087,-0.13108764855435995
102088,-0.13025145598975946
102089,-0.12881348127650263
102090,-0.12764280976305492
102091,-0.1266332981372233
102092,-0.125201402077973
102093,-0.12403930370958191
102094,-0.121612548828125
102095,-0.12048582697151211
102096,-0.11929442687058939
102097,-0.11688232421875
102098,-0.11534179322640331
102099,-0.11427367784851562
102100,-0.11227538275377386
102101,-0.11140381267287663
102102,-0.10951414748833203
102103,-0.10795896254428496
102104,-0.1068261763846557
102105,-0.10565548965911463
102106,-0.10418822282853084
102107,-0.10221923334106522
102108,-0.10200803122213765
102109,-0.09991576102997268
102110,-0.09837522802848345
102111,-0.09727780446011727
102112,-0.09472777188766454
102113,-0.09220704865372878
102114,-0.090789794921875
102115,-0.0897070251617407
102116,-0.08758544921875
102117,-0.08726561862470716
102118,-0.08526732094678195
102119,-0.08354488856345392
102120,-0.08262936050214045
102121,-0.08125606876899702
102122,-0.08009398704778585
102123,-0.07994139901364815
102124,-0.07880000454899179
102125,-0.07763792440638854
102126,-0.07734740444249408
102127,-0.07534910547298078
102128,-0.074920654296875
102129,-0.07394650081352104
102130,-0.0726318359375
102131,-0.07258786547172087
102132,-0.070343017578125
102133,-0.07017577257855724
102134,-0.06802488471383909
102135,-0.06745850505220914
102136,-0.0677050508190845
102137,-0.06561279296875
102138,-0.06544554725162864
102139,-0.0643041420236957
102140,-0.0628662109375
102141,-0.06171014616097242
102142,-0.060410146286961876
102143,-0.05928339673286659
102144,-0.058135986328125
102145,-0.05767822265625
102146,-0.055970437910213486
102147,-0.055404063414959445
102148,-0.05512820630041641
102149,-0.05528079462157949
102150,-0.055498013541659445
102151,-0.05351437053299637
102152,-0.052947998046875
102153,-0.053085925958357406
102154,-0.05293333792421971
102155,-0.050949695202582024
102156,-0.050477270977531664
102157,-0.048326379668571916
102158,-0.047636743268376094
102159,-0.046234130859375
102160,-0.04574704522005685
102161,-0.043472887700899736
102162,-0.04344356501591113
102163,-0.04100215833537305
102164,-0.040435791015625
102165,-0.038328883949410794
102166,-0.03816163450103059
102167,-0.03732538524998789
102168,-0.03614866794632803
102169,-0.0360107421875
102170,-0.03581416704043495
102171,-0.033707261265798955
102172,-0.03343141075271374
102173,-0.03327882300559243
102174,-0.03126585458526988
102175,-0.03108394027839656
102176,-0.0298632367228855
102177,-0.028396011079634194
102178,-0.028504608413081226
102179,-0.026383041367724423
102180,-0.024842498464032182
102181,-0.023789046940065898
102182,-0.02266227499843605
102183,-0.021224381081325485
102184,-0.02145623486627229
102185,-0.019058821756657268
102186,-0.018630387371230423
102187,-0.019029491752672666
102188,-0.017503612415884585
102189,-0.016602749787106005
102190,-0.01675533739072363
102191,-0.01575181716479297
102192,-0.013929494774990718
102193,-0.01277338565387322
102194,-0.011414760070765093
102195,-0.011109584002489707
102196,-0.009416450768535997
102197,-0.009263862447372916
102198,-0.007875904564113115
102199,-0.006575945877475409
102200,-0.006793121457559489
102201,-0.004257794069866064
102202,-0.0040758720134621285
102203,-0.0018457218421503172
102204,-0.0016637994987119893
102205,-0.0003844264635415094
102206,0.0006103515625
102207,0.0009448628011359017
102208,0.0030517578125
102209,0.0032336817345436637
102210,0.005340576171875
102211,0.005950927734375
102212,0.007535480425578625
102213,0.0081018267928761
102214,0.010223388671875
102215,0.010419983192802441
102216,0.012679463942155174
102217,0.013013978194476585
102218,0.01409676316668622
102219,0.0152587890625
102220,0.015701883140062062
102221,0.017823443727473742
102222,0.018034710856424916
102223,0.02030885947797515
102224,0.020490787848838534
102225,0.022612348436233064
102226,0.023208029830379225
102227,0.024901167369660568
102228,0.026180553751253832
102229,0.028636631748239157
102230,0.029951239650765578
102231,0.03197889617817828
102232,0.0347900390625
102233,0.03608409948725467
102234,0.03864875113848886
102235,0.039810767706157685
102236,0.04208491403153999
102237,0.04308847329218478
102238,0.04458500841749278
102239,0.04681513777985684
102240,0.048109202940413306
102241,0.04946782177855093
102242,0.05161872528586447
102243,0.05401611328125
102244,0.055433423412563035
102245,0.05682138804080149
102246,0.05879035786736218
102247,0.0613696789694335
102248,0.06264907683182783
102249,0.064116261574718
102250,0.06612925223911177
102251,0.06866455078125
102252,0.06994395065280229
102253,0.07145515580295231
102254,0.07383786458884554
102255,0.07484143949208574
102256,0.07729752122032905
102257,0.07859743857605853
102258,0.07844485082894623
102259,0.07876470194491783
102260,0.0786267896760128
102261,0.08340988352045504
102262,0.08854500342771397
102263,0.09039073431096671
102264,0.09080447083063752
102265,0.09220711409432561
102266,0.0935217007573461
102267,0.093536376953125
102268,0.09435802233746712
102269,0.0955640494101765
102270,0.09610101755410695
102271,0.0969666951135461
102272,0.098419189453125
102273,0.0982666015625
102274,0.0995166593752266
102275,0.10083124072839103
102276,0.10072268544337967
102277,0.10099850581936663
102278,0.10069332989460394
102279,0.10099850553234126
102280,0.103302001953125
102281,0.10302618286872527
102282,0.103302001953125
102283,0.10327264468224198
102284,0.10328732317416266
102285,0.10229840107452477
102286,0.100860595703125
102287,0.10059945755034926
102288,0.09956649581310444
102289,0.098419189453125
102290,0.09700185951743592
102291,0.09579583574543189
102292,0.09365960498967452
102293,0.09193709769412282
102294,0.08955441158281187
102295,0.08737413989785774
102296,0.08475078418102294
102297,0.0812853037693484
102298,0.07774642027827056
102299,0.07481788777561492
102300,0.0715049964026399
102301,0.06795143068837525
102302,0.06421013922884969
102303,0.06061252842354719
102304,0.05575907807382577
102305,0.052736682985550516
102306,0.048543399683686914
102307,0.043522680081219976
102308,0.03990461622773027
102309,0.036351046925713934
102310,0.03188194941881687
102311,0.026738007520128903
102312,0.021869876669336978
102313,0.016972380223997854
102314,0.012089566575896308
102315,0.006778355711525106
102316,0.0023826727648826296
102317,-0.00025537249416925263
102318,-0.005246722914432894
102319,-0.009868411612658919
102320,-0.014628005117264994
102321,-0.019648722710598383
102322,-0.02495993156589995
102323,-0.02938498125510111
102324,-0.03466682021058275
102325,-0.037196334724807524
102326,-0.04174460297894939
102327,-0.044796361652471514
102328,-0.04893092065382646
102329,-0.051953308997082365
102330,-0.05640772930356613
102331,-0.061152640441469765
102332,-0.06371726439530348
102333,-0.06862944937822582
102334,-0.07337436109016515
102335,-0.0761209444130294
102336,-0.07984752552131252
102337,-0.08199844280559247
102338,-0.0844839092150939
102339,-0.08717174556289975
102340,-0.08943119072177094
102341,-0.0909864436895739
102342,-0.09203987225194965
102343,-0.09419079025377505
102344,-0.09573135698008982
102345,-0.0973657617518164
102346,-0.099334716796875
102347,-0.09934940461696593
102348,-0.09947261672389639
102349,-0.10062886045745653
102350,-0.102081298828125
102351,-0.10165291194451538
102352,-0.101776123046875
102353,-0.10223388671875
102354,-0.10205192117879974
102355,-0.10002421140912339
102356,-0.0994873046875
102357,-0.0993494060520667
102358,-0.0994873046875
102359,-0.09959582395150075
102360,-0.09950199437322078
102361,-0.09921150856471694
102362,-0.09848363750732704
102363,-0.0970458984375
102364,-0.09678479343553764
102365,-0.09718379592485876
102366,-0.09718379578134607
102367,-0.0970458984375
102368,-0.09703120760369656
102369,-0.09478646203275728
102370,-0.09446659541769482
102371,-0.09463387471616504
102372,-0.0946044921875
102373,-0.09239480396200116
102374,-0.0921630859375
102375,-0.0911447157251239
102376,-0.0897216796875
102377,-0.08953970754609193
102378,-0.08754137241203731
102379,-0.08709830072205917
102380,-0.08523786063569255
102381,-0.08491799158095847
102382,-0.08267325103287601
102383,-0.0823974609375
102384,-0.08139377481397572
102385,-0.0799560546875
102386,-0.07981816021385377
102387,-0.0775146484375
102388,-0.07763784892013471
102389,-0.07611196972684305
102390,-0.07505854819647133
102391,-0.0750438539184353
102392,-0.07292231744070495
102393,-0.07246455362531726
102394,-0.0703136284480004
102395,-0.06904884091025006
102396,-0.06761113039896269
102397,-0.06811861713582677
102398,-0.06532231232660407
102399,-0.0653076171875
102400,-0.06430391728702733
102401,-0.06300410325849186
102402,-0.06283681951122634
102403,-0.06056269672147548
102404,-0.06041010868733779
102405,-0.0604101085438341
102406,-0.05828857421875
102407,-0.05799809486819129
102408,-0.05810659317973505
102409,-0.058135986328125
102410,-0.0576929195174785
102411,-0.0579833984375
102412,-0.057707616952739765
102413,-0.05780141596335985
102414,-0.057954003566977476
102415,-0.05597036070182535
102416,-0.05551259674292497
102417,-0.05442978335575139
102418,-0.0531005859375
102419,-0.05296269619969159
102420,-0.050811767578125
102421,-0.049394381243001086
102422,-0.048188376270808665
102423,-0.04608154296875
102424,-0.04563847816723705
102425,-0.04477264576050156
102426,-0.04334966009487843
102427,-0.043138275144201634
102428,-0.041046142578125
102429,-0.040740966796875
102430,-0.040603078637670195
102431,-0.04069686717207893
102432,-0.03882171199870671
102433,-0.03814697265625
102434,-0.038299560546875
102435,-0.0384521484375
102436,-0.03859003573563765
102437,-0.038408046229526885
102438,-0.038176374415257466
102439,-0.03828485952385857
102440,-0.036773681640625
102441,-0.035872855606907804
102442,-0.0359960407339545
102443,-0.035734969600348374
102444,-0.034992302659816836
102445,-0.03315567791784872
102446,-0.03344615210203152
102447,-0.03218134275078405
102448,-0.03082275390625
102449,-0.030990044254982335
102450,-0.03111322708587997
102451,-0.03099004454200772
102452,-0.030778645240316354
102453,-0.028701226469657243
102454,-0.028366644480580065
102455,-0.028563342185222246
102456,-0.028548639009561318
102457,-0.028701227043690873
102458,-0.028396051405953564
102459,-0.0286865234375
102460,-0.028533935546875
102461,-0.02854863972710764
102462,-0.028410756303740667
102463,-0.028533935546875
102464,-0.028548640157636713
102465,-0.0286865234375
102466,-0.028671818539721904
102467,-0.028533935546875
102468,-0.028475114807661073
102469,-0.02681135276507849
102470,-0.026092529296875
102471,-0.025846175976955228
102472,-0.026092529296875
102473,-0.026063117492160847
102474,-0.02394159278225523
102475,-0.02406476815062963
102476,-0.02421735561071655
102477,-0.02391217939892847
102478,-0.0215001859582216
102479,-0.0213623046875
102480,-0.0213623046875
102481,-0.021071835956682473
102482,-0.021180302408984667
102483,-0.01921136688129214
102484,-0.018891483475576905
102485,-0.018477842390099242
102486,-0.018906190669513066
102487,-0.019088194239615622
102488,-0.018891482327493367
102489,-0.0164794921875
102490,-0.016203733090289392
102491,-0.01655853765046305
102492,-0.01617431640625
102493,-0.016602662533027456
102494,-0.016464783271430396
102495,-0.01635632241602158
102496,-0.016326904296875
102497,-0.016356322990072353
102498,-0.016326904296875
102499,-0.016356323564106854
102500,-0.01645007263324276
102501,-0.016464782266867692
102502,-0.016203736534540002
102503,-0.0164794921875
102504,-0.016218447459734144
102505,-0.016464781692825926
102506,-0.01631219365868823
102507,-0.016326904296875
102508,-0.0167552461183437
102509,-0.016095283859204217
102510,-0.01634161550909453
102511,-0.016218450473446673
102512,-0.018507269263359754
102513,-0.01879773383237221
102514,-0.019044062755602404
102515,-0.01905877439834287
102516,-0.01847784683891082
102517,-0.018797734980472023
102518,-0.018891473716895604
102519,-0.018536697284699456
102520,-0.018783023194203455
102521,-0.01878302333770714
102522,-0.018935611371844834
102523,-0.017641343001069888
102524,-0.016312191075513786
102525,-0.01661736671325109
102526,-0.016464778679113397
102527,-0.016326904296875
102528,-0.016312190501472017
102529,-0.016725812213087294
102530,-0.016189030488669365
102531,-0.016282761619078826
102532,-0.016356333035764503
102533,-0.016326904296875
102534,-0.016450062874577735
102535,-0.016435347787578523
102536,-0.016218461236706953
102537,-0.016464777100501655
102538,-0.014052801168011038
102539,-0.013870782672860274
102540,-0.013856067011820163
102541,-0.01402337027645902
102542,-0.013595038070169667
102543,-0.013856066150760278
102544,-0.013870781955304945
102545,-0.0140380859375
102546,-0.013979220423154257
102547,-0.011719834533944753
102548,-0.011581963021897183
102549,-0.01142937498775949
102550,-0.011429374844255802
102551,-0.010469696068597434
102552,-0.00885009765625
102553,-0.009002685546875
102554,-0.009839212633304829
102555,-0.01129150390625
102556,-0.011444091796875
102557,-0.011552525815905467
102558,-0.011335658208382613
102559,-0.011350376883108235
102560,-0.011414655021420497
102561,-0.011581961156260055
102562,-0.011581961012755498
102563,-0.01116835365213939
102564,-0.0115966796875
102565,-0.011168354226172152
102566,-0.01132094240382254
102567,-0.011168354800222926
102568,-0.011690389434914399
102569,-0.011719828219494311
102570,-0.011734547755296962
102571,-0.011857695569754825
102572,-0.01173454746828058
102573,-0.011734547324767888
102574,-0.011734547181264201
102575,-0.009037509114512057
102576,-0.006684425819727627
102577,-0.006684425532720252
102578,-0.006452854318982114
102579,-0.006576000411289392
102580,-0.0067138671875
102581,-0.006699145786060221
102582,-0.006728588732443467
102583,-0.006300268580996087
102584,-0.006561279296875
102585,-0.00669914521202659
102586,-0.006807566602180587
102587,-0.006561279296875
102588,-0.0062855483276299685
102589,-0.005281685973814289
102590,-0.004105150353847129
102591,-0.00396728515625
102592,-0.004134596026919252
102593,-0.004395602581011108
102594,-0.0042724609375
102595,-0.004119873046875
102596,-0.004119873046875
102597,-0.004090425651695585
102598,-0.004105149205772599
102599,-0.004119873046875
102600,-0.004243012681246162
102601,-0.004149321590154225
102602,-0.004243012107195388
102603,-0.002840271687251026
102604,-0.001693191499044556
102605,-0.0013880158613072495
102606,-0.001816329698314063
102607,-0.0016342913987791084
102608,0.00034935160985695375
102609,0.0005019399310200344
102610,0.0006398026889554099
102611,0.0030812092259627846
102612,0.0030812095129881716
102613,0.0019394645968546617
102614,0.0007776655903854668
102615,0.0007776657338981603
102616,0.0007334866045532923
102617,0.00091552734375
102618,0.0007482127418227653
102619,0.00091552734375
102620,0.0008071204481052577
102621,0.0008860730600711078
102622,0.0006103515625
102623,0.000886072486038346
102624,0.000762939453125
102625,0.00036408664477833317
102626,0.0009302552031357706
102627,0.0030370298096015357
102628,0.003095942251733473
102629,0.003204345703125
102630,0.0008566136100398455
102631,0.000762939453125
102632,0.0008860699028621609
102633,0.0020131003060382263
102634,0.0033274755788113867
102635,0.003480063182429012
102636,0.0030370285180143126
102637,0.0029286287978537496
102638,0.003233804866129137
102639,0.0030517578125
102640,0.003095947418055348
102641,0.0036031893268428815
102642,0.003342203438198027
102643,0.0030664881115556606
102644,0.002790773358955062
102645,0.00335693359375
102646,0.002943362110631813
102647,0.0030664886855982978
102648,0.0030370267958890087
102649,0.003189614543010321
102650,0.0029139012255023724
102651,0.003189614255984934
102652,0.003204345703125
102653,0.0032190774372814466
102654,0.0029286336772132806
102655,0.0029139019430478278
102656,0.0031896135384394788
102657,0.0032338103195214294
102658,0.003342201142048098
102659,0.00335693359375
102660,0.0032190784418522893
102661,0.0033422007115190234
102662,0.003219078728876807
102663,0.0031896125338604997
102664,0.002928636547411375
102665,0.003066491268780881
102666,0.002928637121462149
102667,0.003110692785692526
102668,0.003342199706939175
102669,0.0030812258731290247
102670,0.002958106617183824
102671,0.004223013268254297
102672,0.005827808765437174
102673,0.00550789866685628
102674,0.005754135600143078
102675,0.005645751953125
102676,0.005645751953125
102677,0.005645751953125
102678,0.00579833984375
102679,0.005507899527914429
102680,0.005783604234822877
102681,0.00552263556736162
102682,0.00579833984375
102683,0.005783603804285667
102684,0.005370048537811042
102685,0.005645751953125
102686,0.005507900532493408
102687,0.005768866616755809
102688,0.005631015196114341
102689,0.0056604888536483525
102690,0.005645751953125
102691,0.0057688654686705336
102692,0.005616277291020147
102693,0.005675226902237228
102694,0.005768864607612384
102695,0.005645751953125
102696,0.005891976114034246
102697,0.005783601795152118
102698,0.005754125267445291
102699,0.005645751953125
102700,0.005645751953125
102701,0.00579833984375
102702,0.0054931640625
102703,0.005783600934093969
102704,0.005675230059460709
102705,0.005507903259180548
102706,0.005384794192454725
102707,0.005950927734375
102708,0.0057836002165403775
102709,0.005384795484044558
102710,0.004503937147615634
102711,0.0031601255299062996
102712,0.0032190859043772606
102713,0.003204345703125
102714,0.00335693359375
102715,0.0030812390760626696
102716,0.003204345703125
102717,0.003066498731297716
102718,0.0034947804220645906
102719,0.0033421923879359034
102720,0.00306649916182679
102721,0.003081240798178967
102722,0.003327450321063658
102723,0.0031896039232691352
102724,0.0029581376153492325
102725,0.0050648845243857635
102726,0.0055226484832861505
102727,0.00579833984375
102728,0.006743352182318912
102729,0.008362848702530701
102730,0.008101900987551707
102731,0.007964056168378801
102732,0.008195516879393717
102733,0.009243732727234688
102734,0.010528564453125
102735,0.010543307955106168
102736,0.01151781002429928
102737,0.012969970703125
102738,0.0128173828125
102739,0.01295522662711107
102740,0.012846871251553248
102741,0.012846871538578634
102742,0.012969970703125
102743,0.013107813943694301
102744,0.013107813800181608
102745,0.012802637875427922
102746,0.01251220703125
102747,0.011232523009827591
102748,0.010651661608531421
102749,0.010818994723253017
102750,0.010361230907865324
102751,0.01068115234375
102752,0.010361230620848072
102753,0.008377587899210379
102754,0.007964062769836617
102755,0.008057665458762995
102756,0.008101904718818696
102757,0.008072411543927616
102758,0.007919823509789923
102759,0.00823974609375
102760,0.00823974609375
102761,0.007949317545739151
102762,0.008362839230889324
102763,0.008087158203125
102764,0.007949317976268225
102765,0.008072410395853087
102766,0.008072410252340394
102767,0.008087158203125
102768,0.008072409965315877
102769,0.008210249331106367
102770,0.00810190672795951
102771,0.008087158203125
102772,0.009366856575532045
102773,0.010543313408489454
102774,0.010956829927263715
102775,0.010636904616607492
102776,0.010513815067231471
102777,0.010528564453125
102778,0.01036122688959009
102779,0.010942078675732188
102780,0.010405476482352582
102781,0.010528564453125
102782,0.008530171628048321
102783,0.007978821483866097
102784,0.00823974609375
102785,0.007978822344942259
102786,0.00807240738214056
102787,0.008087158203125
102788,0.008210243877732087
102789,0.0079640728155433
102790,0.008072406808090656
102791,0.008116661280201061
102792,0.008087158203125
102793,0.008210242442621423
102794,0.007949322281567976
102795,0.0079345703125
102796,0.008101910459218363
102797,0.00810191060272205
102798,0.008072405660015256
102799,0.007964075685744875
102800,0.008101911033251126
102801,0.008116664150402637
102802,0.008377580867223488
102803,0.008116664724435398
102804,0.008101911607292893
102805,0.01011506142429176
102806,0.010543318144309274
102807,0.010390730397196967
102808,0.011626187643919322
102809,0.012984724824846484
102810,0.012694303452343354
102811,0.012118504797518777
102812,0.010420240219251673
102813,0.010804230842848497
102814,0.01068115234375
102815,0.0103759765625
102816,0.010499054200538607
102817,0.008362823444781231
102818,0.00818072444051169
102819,0.007964081426144543
102820,0.008254501794075959
102821,0.00823974609375
102822,0.007949326299851345
102823,0.008087158203125
102824,0.007235681103793641
102825,0.00563099553524458
102826,0.005783583282365893
102827,0.005783583138853199
102828,0.005645751953125
102829,0.005630994961211818
102830,0.00566050908855901
102831,0.005630994674178296
102832,0.005586722263323434
102833,0.0036473518090369152
102834,0.0030517578125
102835,0.0029139277748553368
102836,0.001801538694513939
102837,0.0009007692037442761
102838,0.0006251098460094113
102839,0.0007481810261028951
102840,0.0007776980236597984
102841,0.0006398689905769715
102842,0.0009007684861988207
102843,0.00091552734375
102844,0.0010090786561047591
102845,-0.0015406381943302537
102846,-0.0012502219881678823
102847,-0.0018015355373067307
102848,-0.001373291015625
102849,-0.0006891401425599222
102850,0.000777699458750709
102851,0.0007481793039784625
102852,0.0006398721478004498
102853,0.0005020449803637553
102854,0.0006103515625
102855,0.00091552734375
102856,0.0006251124291928641
102857,0.0007924614735361152
102858,0.000762939453125
102859,0.0007777007503469385
102860,0.000777700893859632
102861,0.0007334162846483612
102862,0.000762939453125
102863,0.0011911793824725871
102864,0.0007777014678923939
102865,0.000531574463275437
102866,-0.0002559240031744665
102867,-0.0016637043515785317
102868,-0.0018950670452700289
102869,-0.0018458174198218553
102870,-0.0018162918116744573
102871,-0.0015406419255882362
102872,-0.0019688794152659356
102873,-0.001678466796875
102874,-0.001648939897124109
102875,-0.001801527500723722
102876,-0.001678466796875
102877,-0.0018162908070946087
102878,-0.00152587890625
102879,-0.0004134711696096834
102880,0.0009302916546844657
102881,0.000762939453125
102882,0.0004872928677766933
102883,0.0006251163039635402
102884,0.0006251164474672275
102885,0.001053350205895079
102886,0.0005955863905073854
102887,0.000930292659246302
102888,0.000639882480517991
102889,0.0007334082480816219
102890,0.0009007615977246235
102891,0.00077770534266307
102892,0.00048729573797652695
102893,0.0005020622015627563
102894,0.0009007610236747211
102895,0.0009007608801620275
102896,0.0010090488060083606
102897,0.0007777062037293533
102898,0.001068115234375
102899,0.0006398856377432117
102900,0.0009007601626157007
102901,0.0007777067777719929
102902,0.0006398864988013607
102903,0.000762939453125
102904,0.0009007595885739326
102905,0.0009450631411095095
102906,0.002500478418769793
102907,0.0030812941838922712
102908,0.003342165264541171
102909,0.0033273966483069544
102910,0.00302222058004958
102911,0.0043610734959274216
102912,0.005630983049874403
102913,0.005355345218629285
102914,0.005645751953125
102915,0.005645751953125
102916,0.004365970918959026
102917,0.003204345703125
102918,0.0030369880481831194
102919,0.001191163309357121
102920,0.0007333993504567339
102921,-0.0013880612104718265
102922,-0.002943480936926542
102923,-0.004257690455636793
102924,-0.003859009141752703
102925,-0.006177369469397942
102926,-0.006516966559698154
102927,-0.004533323551035073
102928,-0.0038442396644423255
102929,-0.004075559018110931
102930,-0.00169323828330905
102931,-0.0005512650427490507
102932,0.0019049135547521542
102933,0.004316776688389373
102934,0.007688482773117247
102935,0.010238160875862639
102936,0.014234990870598981
102937,0.016705942533145102
102938,0.019117804231675143
102939,0.020323735009165803
102940,0.021160539356987768
102941,0.02290295665879666
102942,0.02288818359375
102943,0.02288818359375
102944,0.02288818359375
102945,0.02317858573592058
102946,0.02288818359375
102947,0.02275036962922981
102948,0.022750369772733498
102949,0.02259778202562119
102950,0.022873409237116116
102951,0.022597782312637572
102952,0.023011222197074473
102953,0.022735595703125
102954,0.022829083871083417
102955,0.020584590160195662
102956,0.020048114542675667
102957,0.019319560664559584
102958,0.017990595589033452
102959,0.01658775313343728
102960,0.015273564854232929
102961,0.013275146484375
102962,0.011719715420606625
102963,0.01049901200859925
102964,0.008515369143448864
102965,0.006822125550260214
102966,0.005921374428791102
102967,0.0043511648466017855
102968,0.00335693359375
102969,0.002121453385428976
102970,0.0006251287893337173
102971,0.0006103515625
102972,0.0008859723160498037
102973,0.0005807962477744166
102974,-0.0015406567071164791
102975,-0.0015406568506291726
102976,-0.0018014985117162678
102977,-0.0012650378192110622
102978,-0.003096092937249143
102979,-0.0042724609375
102980,-0.004380712842326715
102981,-0.003903370098297732
102982,-0.006393912457290979
102983,-0.006300440793013126
102984,-0.006822117370198793
102985,-0.006684308428523809
102986,-0.006256103515625
102987,-0.004257681270995524
102988,-0.00425768112748283
102989,-0.0042724609375
102990,-0.003662109375
102991,-0.0016932470374212444
102992,-0.00152587890625
102993,0.00018214894575025077
102994,0.0008859660015993622
102995,0.0020575466510200317
102996,0.003204345703125
102997,0.0032191268047203872
102998,0.0033273711035175712
102999,0.003219127091753908
103000,0.0034947399522424045
103001,0.003189564027479711
103002,0.0033421517745920175
103003,0.0033421516310874577
103004,0.0029139520280502358
103005,0.0033273690943741415
103006,0.0031895633099333835
103007,0.0030517578125
103008,0.003189563022907996
103009,0.0030813234599413823
103010,0.0030517578125
103011,0.003494738373628922
103012,0.0022001188338764068
103013,0.000595568164737541
103014,0.0007481559118498474
103015,0.00091552734375
103016,0.000733371796541933
103017,0.000748155481320773
103018,0.0007777235684329144
103019,0.000945095861407483
103020,0.003036973410158565
103021,0.003465167846839633
103022,0.003066542501857816
103023,0.0031108971439820377
103024,0.0053701461246251385
103025,0.005891787254823948
103026,0.004228105147325649
103027,0.00335693359375
103028,0.0030665433629168373
103029,0.0033273622059089504
103030,0.0031747740282585635
103031,0.0031599877602872645
103032,0.003189559578675401
103033,0.003204345703125
103034,0.0031747728801750277
103035,0.005217561391207348
103036,0.005507950760991367
103037,0.00566053879512906
103038,0.0056309649676172515
103039,0.005827914101790883
103040,0.008072370930583732
103041,0.008087158203125
103042,0.008101945762682649
103043,0.008101945906195344
103044,0.00823974609375
103045,0.008224958103662403
103046,0.0068516669445247095
103047,0.0056161753989170445
103048,0.0033125683318999868
103049,0.0009941724137281771
103050,-0.0014176571385241558
103051,-0.004602515041873946
103052,-0.009746138061300952
103053,-0.01481111801978339
103054,-0.020973792350122297
103055,-0.0304342437215627
103056,-0.03996864293632402
103057,-0.05342595960598567
103058,-0.06810397997448196
103059,-0.08478043349457243
103060,-0.10288933946229593
103061,-0.12063859554110931
103062,-0.13632557129081208
103063,-0.1510822285494439
103064,-0.16471160684535796
103065,-0.1723262126690118
103066,-0.17748929880447525
103067,-0.179901123046875
103068,-0.17702141939827645
103069,-0.17207943986934543
103070,-0.16253023931805016
103071,-0.1503870429038605
103072,-0.13258330094953527
103073,-0.11204776696349551
103074,-0.0864916230162649
103075,-0.058311898902507646
103076,-0.026972204393634135
103077,0.008044393221194955
103078,0.045684571863608824
103079,0.08926088737949785
103080,0.1366666948966914
103081,0.18660732593790566
103082,0.23664137253091763
103083,0.2880191229656608
103084,0.33701464063725856
103085,0.3862413657239793
103086,0.4336666227238082
103087,0.47990076405901605
103088,0.5244416444369263
103089,0.5682343793792153
103090,0.6147293130080076
103091,0.6589354274169973
103092,0.7004837273440093
103093,0.7441238739645137
103094,0.7858099680516636
103095,0.8275450844443789
103096,0.8679217036948839
103097,0.9049117972989245
103098,0.937068095398624
103099,0.9595817611781083
103100,0.9713106991269208
103101,0.968622388909198
103102,0.9515565906940393
103103,0.9216882005258991
103104,0.8808334770666272
103105,0.8313996114816097
103106,0.7747645186778811
103107,0.7146300788195891
103108,0.6525415901595651
103109,0.5916590077359462
103110,0.5303482562769353
103111,0.4727588046148028
103112,0.4163012721674104
103113,0.36033109888943426
103114,0.30576381298645705
103115,0.25362313644500184
103116,0.20435203432861884
103117,0.15561268778442375
103118,0.10988070537593268
103119,0.06571899856483954
103120,0.02535719198755181
103121,-0.012410619013983985
103122,-0.046974082876817536
103123,-0.07816581252776579
103124,-0.10603020551716982
103125,-0.1307198505967952
103126,-0.1541147939057363
103127,-0.17192318228402045
103128,-0.18771832742006814
103129,-0.2011802526270555
103130,-0.21143324382850368
103131,-0.21975157859271596
103132,-0.22540191540404056
103133,-0.22773513590735234
103134,-0.2290048223031767
103135,-0.2270211794380263
103136,-0.22546569814575182
103137,-0.22296508654972416
103138,-0.21951476926331132
103139,-0.21622161410596383
103140,-0.2122053509887781
103141,-0.20837585152557
103142,-0.20607223068158656
103143,-0.20376860955063172
103144,-0.2008990431627962
103145,-0.1998605320365602
103146,-0.19778351121919718
103147,-0.19600142631256862
103148,-0.1951155037945301
103149,-0.19372740943323588
103150,-0.19233931478491886
103151,-0.19253631156446016
103152,-0.1923985267324674
103153,-0.1902622961202047
103154,-0.19009490445340202
103155,-0.19021788450462826
103156,-0.18782088943967562
103157,-0.18766830140554694
103158,-0.18524169921875
103159,-0.1839617786928362
103160,-0.18266250957185715
103161,-0.18248031255025518
103162,-0.18063445293848496
103163,-0.18046705983659136
103164,-0.18043744927050548
103165,-0.17845380597477634
103166,-0.17764191539709684
103167,-0.17647016196156945
103168,-0.17520050972114762
103169,-0.17407317163247002
103170,-0.17271468625865893
103171,-0.17059326171875
103172,-0.17057845550289255
103173,-0.16931333315626945
103174,-0.16786148619038282
103175,-0.16702451364882895
103176,-0.16581861673967738
103177,-0.16441571142673553
103178,-0.1629786742644156
103179,-0.16064543438726844
103180,-0.15838623046875
103181,-0.156815929040166
103182,-0.15588559361492058
103183,-0.15350341796875
103184,-0.15207089520123004
103185,-0.15087980766515213
103186,-0.1487435769093785
103187,-0.148468017578125
103188,-0.14715846338098318
103189,-0.14590364074855466
103190,-0.14601180252908497
103191,-0.1437526019113036
103192,-0.143585205078125
103193,-0.141143798828125
103194,-0.14097640156441735
103195,-0.13911572770024094
103196,-0.1372994822423019
103197,-0.1363691448079148
103198,-0.133819580078125
103199,-0.13269222448123752
103200,-0.13148633101632756
103201,-0.12908935546875
103202,-0.12765682236849624
103203,-0.12674129445069546
103204,-0.12400952265360428
103205,-0.12288216318194614
103206,-0.12147477203268996
103207,-0.11958447253386767
103208,-0.11789119392423111
103209,-0.11653271386031852
103210,-0.11451944751317573
103211,-0.11199951171875
103212,-0.11044400889998578
103213,-0.1083225902439802
103214,-0.1067967111942175
103215,-0.104522705078125
103216,-0.10406494140625
103217,-0.10235684926175186
103218,-0.10209611164544026
103219,-0.1006487559691882
103220,-0.09945767847881871
103221,-0.09733626097090567
103222,-0.09686368376416095
103223,-0.09515558961052112
103224,-0.09349193591800478
103225,-0.09213345829372781
103226,-0.09091275488170242
103227,-0.08982982525141756
103228,-0.0894313181586733
103229,-0.089706865291564
103230,-0.087432861328125
103231,-0.08726545875454762
103232,-0.0872802734375
103233,-0.08735878647827683
103234,-0.08511441274178534
103235,-0.08497663982112998
103236,-0.08480923638650258
103237,-0.08282559352135219
103238,-0.08252041745309482
103239,-0.08125526654798608
103240,-0.07983309874595595
103241,-0.07992642245141167
103242,-0.077667236328125
103243,-0.07763760351798589
103244,-0.07624949566678028
103245,-0.07487620422061719
103246,-0.07292219488315137
103247,-0.072479248046875
103248,-0.07046597122351998
103249,-0.06891045749795667
103250,-0.06771938861822097
103251,-0.06659200288421172
103252,-0.0654453873814601
103253,-0.06544538723795641
103254,-0.06402764212777134
103255,-0.06288102906469485
103256,-0.06288102920819855
103257,-0.06259067198467247
103258,-0.061738821472229276
103259,-0.06040998598627238
103260,-0.05928259522942344
103261,-0.05769304164450301
103262,-0.05656565002660492
103263,-0.05551235363696123
103264,-0.05336130346240376
103265,-0.05282504928082153
103266,-0.05185024340090308
103267,-0.05064435983819785
103268,-0.050506591796875
103269,-0.04937919601718986
103270,-0.048370361328125
103271,-0.04707555608636476
103272,-0.045668240997469224
103273,-0.04464896911165129
103274,-0.043182373046875
103275,-0.04220756171354624
103276,-0.040603200047148374
103277,-0.040632842759483215
103278,-0.040740966796875
103279,-0.03883580425223774
103280,-0.038299560546875
103281,-0.03843732657904716
103282,-0.03715733530271737
103283,-0.03573521069718844
103284,-0.03569074411726809
103285,-0.0339826323119182
103286,-0.03326416015625
103287,-0.033111572265625
103288,-0.0311279296875
103289,-0.031236048558542895
103290,-0.028809465028044875
103291,-0.027514645148261834
103292,-0.026230293750435427
103293,-0.026077705716297733
103294,-0.02484217872371309
103295,-0.02366594691446865
103296,-0.023651123046875
103297,-0.024019941791084572
103298,-0.0213623046875
103299,-0.021209716796875
103300,-0.021347480102360022
103301,-0.0213623046875
103302,-0.02133265494318728
103303,-0.021209716796875
103304,-0.021224541956056747
103305,-0.021086779511620867
103306,-0.0213623046875
103307,-0.02122454238658582
103308,-0.020220060787052456
103309,-0.0190586604513978
103310,-0.018935724457739896
103311,-0.01857124416501925
103312,-0.01686312432305296
103313,-0.016312077846097898
103314,-0.014190673828125
103315,-0.013870671309081518
103316,-0.011872201706137649
103317,-0.011335984980682215
103318,-0.010164079998581273
103319,-0.009002685546875
103320,-0.008879752566929626
103321,-0.007875259917089974
103322,-0.0064383468909804
103323,-0.005158332509512226
103324,-0.004227976849355258
103325,-0.003036929639605726
103326,-0.001678466796875
103327,-0.0002606904015180346
103328,0.0008074252633680275
103329,0.002913998668802036
103330,0.0044695354994441884
103331,0.005813168877693417
103332,0.007811640776787221
103333,0.009229420042384674
103334,0.010956669196038755
103335,0.012709283745854947
103336,0.014235163082643028
103337,0.016538811767538786
103338,0.018872120816537857
103339,0.020353510181268835
103340,0.022765256354204292
103341,0.02500958359344766
103342,0.0264421969158201
103343,0.02780065760588744
103344,0.030074645352706413
103345,0.03132501070740732
103346,0.032407957558891184
103347,0.034667113832095975
103348,0.03511004631737318
103349,0.03724627692962687
103350,0.037551452854389565
103351,0.03965801965834774
103352,0.04078546293984283
103353,0.041823914222418636
103354,0.043241702385632845
103355,0.04457049654069315
103356,0.0445556640625
103357,0.04569794312292265
103358,0.04702673612994445
103359,0.049285888671875
103360,0.04962073084460396
103361,0.051727294921875
103362,0.0531450863857946
103363,0.05448871057939356
103364,0.05674786154271875
103365,0.056959784943006825
103366,0.058697588397583406
103367,0.06150775412218532
103368,0.06292554831279207
103369,0.06522920173350852
103370,0.0665579895741788
103371,0.06870905510430628
103372,0.06898456148035578
103373,0.071258544921875
103374,0.071563720703125
103375,0.07368511582348201
103376,0.07386737455440567
103377,0.07377412934896685
103378,0.076141357421875
103379,0.0763236171573695
103380,0.0780465924391166
103381,0.07876502398140402
103382,0.0810390062748397
103383,0.08106867941130719
103384,0.08345073953189391
103385,0.08366267441298132
103386,0.08589214549487753
103387,0.085906982421875
103388,0.08576923174527284
103389,0.08707895915893576
103390,0.08863872695208577
103391,0.088348388671875
103392,0.08831871309576378
103393,0.08837806453501161
103394,0.088530652712662
103395,0.08836322689045968
103396,0.09066688375546102
103397,0.0910652936918886
103398,0.09080463357099688
103399,0.09095722160513459
103400,0.090789794921875
103401,0.09091270465319631
103402,0.08880615234375
103403,0.08851581592917723
103404,0.08679283074526317
103405,0.08598537204403195
103406,0.0837855917503313
103407,0.08358848418108002
103408,0.0813928930884139
103409,0.07890277968086037
103410,0.07760787484316874
103411,0.07476806640625
103412,0.07271022053680275
103413,0.07028365437105244
103414,0.06761545492997251
103415,0.06445563120161385
103416,0.06067061553956115
103417,0.0580172553215807
103418,0.05346930049344466
103419,0.05043238348270291
103420,0.045992492130667334
103421,0.043353971279467815
103422,0.03894376325308505
103423,0.03465645893060645
103424,0.03148179669670976
103425,0.026859631401690575
103426,0.022036188136188184
103427,0.019122174542381236
103428,0.014269046946637415
103429,0.009661723314453526
103430,0.005891554768619408
103431,0.002199758049665451
103432,-0.0014623521864107099
103433,-0.005154149766368779
103434,-0.007748145055095327
103435,-0.012340626880940234
103436,-0.015057521998729327
103437,-0.019344828186827923
103438,-0.02265722976015282
103439,-0.027082279305796257
103440,-0.029691118840531668
103441,-0.03304805329535783
103442,-0.03718277216681828
103443,-0.04058837890625
103444,-0.04421666239534171
103445,-0.046948400180527934
103446,-0.05041338605667388
103447,-0.052825101518469315
103448,-0.05625626452235646
103449,-0.05897315562192522
103450,-0.06155230436842993
103451,-0.0639005083224614
103452,-0.06747354045357824
103453,-0.0693045954280856
103454,-0.071470519555222
103455,-0.07255348219284097
103456,-0.07493550126957188
103457,-0.07511778353612872
103458,-0.07697853317361134
103459,-0.07755919064720225
103460,-0.07951313856237179
103461,-0.080108642578125
103462,-0.08210713299001315
103463,-0.08244200486932755
103464,-0.08209228515625
103465,-0.08225972131116811
103466,-0.082550048828125
103467,-0.0822300244955565
103468,-0.08253520013330282
103469,-0.08225972188520987
103470,-0.08236776297380485
103471,-0.08238261181214875
103472,-0.0823974609375
103473,-0.08242715976225329
103474,-0.08210713471213034
103475,-0.08213683425442908
103476,-0.08128479617443486
103477,-0.07997090467390941
103478,-0.0799412045575779
103479,-0.07968057945310157
103480,-0.07969543015708984
103481,-0.0799709052479593
103482,-0.07983316820480099
103483,-0.07969543144867706
103484,-0.07991150171453486
103485,-0.0789365694022994
103486,-0.07763753377211373
103487,-0.07723917549928666
103488,-0.07748494530745596
103489,-0.07533386284314586
103490,-0.0750583903354526
103491,-0.0752109780825739
103492,-0.0726318359375
103493,-0.07250895261202796
103494,-0.07275471897596467
103495,-0.07035787014771785
103496,-0.06991495933246111
103497,-0.07005269465348424
103498,-0.07000813579663114
103499,-0.06788675818449037
103500,-0.06787190475384837
103501,-0.06745870108690914
103502,-0.06747355480459366
103503,-0.06662149333242293
103504,-0.065460205078125
103505,-0.06503214941565182
103506,-0.06442584454873124
103507,-0.06298909024468867
103508,-0.0629890899576813
103509,-0.06160094407629636
103510,-0.06039509524300552
103511,-0.060301926528376855
103512,-0.06040994967823638
103513,-0.05912982579861843
103514,-0.0579833984375
103515,-0.058106275448539614
103516,-0.058106275161514225
103517,-0.05567972435131593
103518,-0.05549742457653469
103519,-0.05354349359554054
103520,-0.0529182857321987
103521,-0.050949499167899155
103522,-0.04940876367375667
103523,-0.04835550474024965
103524,-0.048188059974723904
103525,-0.04681476867207352
103526,-0.0457763671875
103527,-0.045638636458793
103528,-0.04588438316183292
103529,-0.043502406277059376
103530,-0.04316751545442793
103531,-0.043197230782834765
103532,-0.042315428437505825
103533,-0.0408638386415477
103534,-0.04086383835452232
103535,-0.04103128426813247
103536,-0.041016425671114555
103537,-0.04087869609049109
103538,-0.040740966796875
103539,-0.04061809667431859
103540,-0.040726107769337015
103541,-0.04077068513897635
103542,-0.040740966796875
103543,-0.04087869522942481
103544,-0.04084897588273636
103545,-0.04055865941604885
103546,-0.038727604441541476
103547,-0.03857501626389109
103548,-0.038299560546875
103549,-0.03842242779923157
103550,-0.03631591796875
103551,-0.0362713361502712
103552,-0.03602560293716329
103553,-0.03572042729942598
103554,-0.03608902489468163
103555,-0.033721923828125
103556,-0.033554474613794946
103557,-0.03343160951409275
103558,-0.03358419754822144
103559,-0.032412050177720225
103560,-0.030975341796875
103561,-0.030975341796875
103562,-0.031113067502736798
103563,-0.032270356563254485
103564,-0.033416748046875
103565,-0.03366247336692337
103566,-0.030960479038070907
103567,-0.030852479710883576
103568,-0.030975341796875
103569,-0.031098203308831906
103570,-0.03099020512972174
103571,-0.031098202734781134
103572,-0.03236349643236312
103573,-0.033416748046875
103574,-0.033401884139986494
103575,-0.03353960783671561
103576,-0.03369219544031522
103577,-0.033171029615295326
103578,-0.033416748046875
103579,-0.033446477295742925
103580,-0.03315616656946497
103581,-0.03218118001042466
103582,-0.031142794742463037
103583,-0.03096047659839927
103584,-0.030625569989686744
103585,-0.02856366651787548
103586,-0.02825849102365087
103587,-0.028627060347433512
103588,-0.026535427052720686
103589,-0.026092529296875
103590,-0.026230250984453425
103591,-0.026215384494381468
103592,-0.026137128767090883
103593,-0.02882424469454935
103594,-0.02839621443333834
103595,-0.0286865234375
103596,-0.027544072882601387
103597,-0.02593994140625
103598,-0.026215382485257795
103599,-0.025910206416982405
103600,-0.024202004056789038
103601,-0.02349853515625
103602,-0.023621387196549257
103603,-0.0238037109375
103604,-0.02366599125905425
103605,-0.023513403511941946
103606,-0.024079149720324464
103607,-0.023513403798966454
103608,-0.023956298828125
103609,-0.023773973078016316
103610,-0.02383344908399106
103611,-0.023606515396597697
103612,-0.021485153857581412
103613,-0.02150002307434952
103614,-0.021209716796875
103615,-0.021239456378476736
103616,-0.021239456665484113
103617,-0.020949151249076748
103618,-0.021347434466170056
103619,-0.021209716796875
103620,-0.021224587305221324
103621,-0.02107199955810902
103622,-0.021071999701612706
103623,-0.021194845857999602
103624,-0.02235218744319046
103625,-0.02349853515625
103626,-0.0238037109375
103627,-0.023680866072707578
103628,-0.023651123046875
103629,-0.023665994846816675
103630,-0.023926554941234274
103631,-0.023513407243208058
103632,-0.023606506355460116
103633,-0.021622863346824055
103634,-0.021209716796875
103635,-0.0213771773485007
103636,-0.020082110344482443
103637,-0.018906025489482916
103638,-0.01918145494416067
103639,-0.018891151967433073
103640,-0.0189208984375
103641,-0.018738563502757297
103642,-0.01879805787800008
103643,-0.018478008574700232
103644,-0.018768310546875
103645,-0.018738562354691773
103646,-0.018798059026083613
103647,-0.021194842413758
103648,-0.021500018051496185
103649,-0.02148514323784198
103650,-0.0213771795011542
103651,-0.021086878820565782
103652,-0.021101754208261752
103653,-0.02148514208975669
103654,-0.01997413828418716
103655,-0.018906022906299464
103656,-0.019013983629308107
103657,-0.016617204259908085
103658,-0.01605148043908422
103659,-0.016341780402108298
103660,-0.016356656794366983
103661,-0.01605148130014237
103662,-0.014771272319100255
103663,-0.014313508360199869
103664,-0.015027997395188796
103665,-0.016326904296875
103666,-0.01628227296746258
103667,-0.014190673828125
103668,-0.01374778755307052
103669,-0.014268874017043286
103670,-0.014160918460416928
103671,-0.014313506064034552
103672,-0.013870620076004583
103673,-0.013915254275641222
103674,-0.014023207679612324
103675,-0.013870619645474631
103676,-0.014905175205016443
103677,-0.01603660720404175
103678,-0.01655768591847778
103679,-0.014052964912942138
103680,-0.01373291015625
103681,-0.013900377309333519
103682,-0.013762668968192424
103683,-0.0140380859375
103684,-0.013870618353887407
103685,-0.013747789992750286
103686,-0.013718030176246026
103687,-0.011872095221716665
103688,-0.01156691915345929
103689,-0.011764147988658049
103690,-0.01361008337373274
103691,-0.013915259441990114
103692,-0.01390037888794525
103693,-0.013870617062292055
103694,-0.013762672412423262
103695,-0.014008323394299593
103696,-0.014008323107274206
103697,-0.013900379605491585
103698,-0.014175792125995722
103699,-0.014023204091858029
103700,-0.013565440276479341
103701,-0.011611561820158352
103702,-0.011183562844138137
103703,-0.0113994445378508
103704,-0.009583271983000147
103705,-0.00897292013347476
103706,-0.009140390587296193
103707,-0.009278095340691997
103708,-0.008864980793479195
103709,-0.0091552734375
103710,-0.008195095821013274
103711,-0.006684100051967207
103712,-0.006698983476229916
103713,-0.006546395442092222
103714,-0.006792035086647644
103715,-0.004257576795700841
103716,-0.00396728515625
103717,-0.004257576508683582
103718,-0.005675521097783223
103719,-0.006698982471658195
103720,-0.006438461124940985
103721,-0.006270988518483186
103722,-0.00640869140625
103723,-0.004395278248375867
103724,-0.00439527796135048
103725,-0.004119873046875
103726,-0.004090101606067717
103727,-0.004134758910791334
103728,-0.004119873046875
103729,-0.004119873046875
103730,-0.0053852350552112275
103731,-0.006531506420958794
103732,-0.006270990097094918
103733,-0.006669207012552167
103734,-0.004685564003889086
103735,-0.004119873046875
103736,-0.004119873046875
103737,-0.0038295845646502576
103738,-0.0038295847081539452
103739,-0.002824731991666807
103740,-0.00152587890625
103741,-0.001678466796875
103742,-0.0017417265880757214
103743,0.0005024281521252199
103744,0.0006550164732612821
103745,0.0007480510060252125
103746,0.00091552734375
103747,0.00048754114010733695
103748,0.000748050575496138
103749,0.0006401296047650988
103750,0.000762939453125
103751,0.000762939453125
103752,0.0007480500014633762
103753,0.0007480498579425553
103754,0.000762939453125
103755,-0.0003349555456476511
103756,-0.0013881810413365191
103757,-0.0015407690754742126
103758,-0.001953861952667442
103759,-0.0018310546875
103760,-0.0013881816153791659
103761,-0.0016933575401328533
103762,-0.0016933576836455468
103763,-0.00152587890625
103764,-0.001678466796875
103765,-0.0014030736502242424
103766,-0.001678466796875
103767,-0.0018161630831839979
103768,-0.0016486833012176088
103769,-0.00152587890625
103770,-0.001648682727184847
103771,-0.0012951640167888504
103772,-0.0015407712281204635
103773,-0.001845947152874151
103774,-0.0016188963612951133
103775,0.0004875491766903304
103776,0.0011760244372659423
103777,0.0006401376413480922
103778,0.001038328868519533
103779,0.000748046126683694
103780,0.0005024440817369987
103781,0.000762939453125
103782,-0.0005173386997565218
103783,-0.001540772806733074
103784,-0.001678466796875
103785,-0.0014960905312510903
103786,-0.001801266025475703
103787,-0.0018012657384683284
103788,-0.001373291015625
103789,-0.001678466796875
103790,-0.0015556687163398204
103791,-0.001678466796875
103792,-0.0016933619889452974
103793,-0.0015556695773979695
103794,-0.0017231532341350345
103795,-0.0016933624194824988
103796,-0.001693362562986186
103797,-0.0016635708872511205
103798,-0.001968746524988427
103799,-0.0015407751028902604
103800,-0.0016337777764135004
103801,-0.0018161582038334733
103802,-0.0016933634240452141
103803,-0.0018161579168170924
103804,-0.0006586610537557918
103805,0.0005954545048007115
103806,0.0008857329413260358
103807,0.000762939453125
103808,0.0006550440271850891
103809,0.0009006297120089435
103810,0.000457763671875
103811,0.00047266159063243747
103812,0.0008857312192097381
103813,0.0006103515625
103814,0.0004428653225884881
103815,-0.0015109804134507945
103816,-0.0018161560511889803
103817,-0.0015407776860737132
103818,-0.00178635791749078
103819,-0.003066656879340094
103820,-0.0040751754158166375
103821,-0.004227762875900919
103822,-0.004149672041615096
103823,-0.004011984078898224
103824,-0.0061482149781863045
103825,-0.006546379368975877
103826,-0.006546379225463184
103827,-0.006669166542726472
103828,-0.006576179655303197
103829,-0.00669896668555911
103830,-0.0067138671875
103831,-0.006453393773121813
103832,-0.0067138671875
103833,-0.006561279296875
103834,-0.006501674418929617
103835,-0.004547833992751922
103836,-0.0042724609375
103837,-0.00396728515625
103838,-0.00396728515625
103839,-0.003982187093289928
103840,-0.0054299886551907265
103841,-0.006423593630315315
103842,-0.007811787157014763
103843,-0.00903249056904015
103844,-0.01130640656084527
103845,-0.011306406704348956
103846,-0.011444091796875
103847,-0.011399382541501971
103848,-0.009278054870868939
103849,-0.007874956823937105
103850,-0.006698963671846582
103851,-0.006698963528342895
103852,-0.0067138671875
103853,-0.00647540404858013
103854,0.007808243607484151
103855,0.011838692977318236
103856,0.015303502192634698
103857,0.01910329536855551
103858,0.021436828006180367
103859,0.022750500510373767
103860,0.02279521550613482
103861,0.024901636360405297
103862,0.02503931930027784
103863,0.02520681271568982
103864,0.02532958984375
103865,0.025177001953125
103866,0.025452366110752033
103867,0.02532958984375
103868,0.025590047328516406
103869,0.024856919929534444
103870,0.02534449622960325
103871,0.025284870255679184
103872,0.023178452702130366
103873,0.02246023355463965
103874,0.0225830078125
103875,0.021592944951756468
103876,0.020294189453125
103877,0.020264374672294826
103878,0.018020278627677782
103879,0.017715102989948602
103880,0.01701530464523856
103881,0.015519240950355055
103882,0.0140380859375
103883,0.012984878954606363
103884,0.012925245518140192
103885,0.010941602509477111
103886,0.0096761729079321
103887,0.00804243172655297
103888,0.005630842984088297
103889,0.005738703393588435
103890,0.003464793716215746
103891,0.003007029613802665
103892,0.0010532056913055343
103893,0.0007480297665428408
103894,0.000762939453125
103895,0.0008707974229543796
103896,-0.0005174041403199346
103897,-0.0015556994274798421
103898,-0.0029439011342578436
103899,-0.004026927346811232
103900,-0.006256103515625
103901,-0.00756627164861389
103902,-0.008894830590782526
103903,-0.011306415027931196
103904,-0.011488825592456668
103905,-0.01331988071049739
103906,-0.01373291015625
103907,-0.013885498046875
103908,-0.014160850149651925
103909,-0.013762734121730449
103910,-0.013855673794369163
103911,-0.013930234856171836
103912,-0.0138705856336057
103913,-0.012757732585372028
103914,-0.011566854286910627
103915,-0.011719441890528252
103916,-0.011306416893561067
103917,-0.011611592818323762
103918,-0.011429178522547552
103919,-0.011429178379034859
103920,-0.01129150390625
103921,-0.011138916015625
103922,-0.010286493472235947
103923,-0.009002685546875
103924,-0.00885009765625
103925,-0.008909754771875666
103926,-0.009002685546875
103927,-0.008987770980951323
103928,-0.008987770837438628
103929,-0.008712424618565058
103930,-0.009002685546875
103931,-0.008987770406909554
103932,-0.0091552734375
103933,-0.009002685546875
103934,-0.0091552734375
103935,-0.007859991742508963
103936,-0.006698951329989099
103937,-0.006698951186476405
103938,-0.006546363152347718
103939,-0.006684034611420049
103940,-0.006285936378730338
103941,-0.006561279296875
103942,-0.006546362578297825
103943,-0.00640869140625
103944,-0.006561279296875
103945,-0.00669895003839375
103946,-0.006851537785505176
103947,-0.006698949751376489
103948,-0.006546361717238795
103949,-0.006438526852547797
103950,-0.0065911150301801716
103951,-0.006546361286709721
103952,-0.006546361143197027
103953,-0.005418572576591699
103954,-0.0041049546061806465
103955,-0.0038445344340390947
103956,-0.004242623482078531
103957,-0.003844535008071856
103958,-0.004119873046875
103959,-0.003844535582104618
103960,-0.003267417783234984
103961,-0.001678466796875
103962,-0.001540798495027009
103963,-0.003799777533335297
103964,-0.00410495317108161
103965,-0.0039822051755560835
103966,-0.006300864004081331
103967,-0.00784166364716838
103968,-0.010283070471219154
103969,-0.012646492371388589
103970,-0.017544226899774196
103971,-0.02222969030318079
103972,-0.028117557294786485
103973,-0.03574695369158442
103974,-0.046487793144576184
103975,-0.058356434797672024
103976,-0.07424050060817478
103977,-0.09123744716457285
103978,-0.1082825295651458
103979,-0.12567755297099537
103980,-0.14163959667365372
103981,-0.15470246930633558
103982,-0.16498891384159334
103983,-0.17359688985805174
103984,-0.17544622872674553
103985,-0.1755540476618454
103986,-0.17058169624617028
103987,-0.16236022787580404
103988,-0.15026101168604994
103989,-0.1347600906508416
103990,-0.11422376750317113
103991,-0.09092593685127225
103992,-0.06440883459299299
103993,-0.03526454030843362
103994,-0.002383515742953839
103995,0.032101355431494304
103996,0.07044235406588234
103997,0.11412727437836478
103998,0.15939777347871656
103999,0.20793565878939363
104000,0.25691638301752145
104001,0.30572959416935935
104002,0.3545726556918155
104003,0.40353845444726205
104004,0.45007777228251095
104005,0.495306832433189
104006,0.5381392623220727
104007,0.5811690573806985
104008,0.6226431211519833
104009,0.664727535912396
104010,0.7059710551412544
104011,0.7462094881622108
104012,0.7854096586168833
104013,0.8230540960627002
104014,0.8599206661424997
104015,0.8932180048111459
104016,0.9228830864848402
104017,0.9472855407464588
104018,0.9629009163331593
104019,0.9668449685087498
104020,0.9567658563447689
104021,0.9353952342470049
104022,0.89975598540043
104023,0.8564724090868766
104024,0.8052210975819167
104025,0.7480487130192528
104026,0.6869538276113357
104027,0.6237824262542909
104028,0.5592078757616705
104029,0.49547091016694245
104030,0.4341454929882823
104031,0.37446539093159514
104032,0.31792991862245157
104033,0.2638839334431299
104034,0.21148326596876754
104035,0.16010592525512082
104036,0.11072715818919433
104037,0.06530074707623607
104038,0.021630739033501226
104039,-0.021127023739677897
104040,-0.0593220782799334
104041,-0.09490820574491607
104042,-0.1267841511351112
104043,-0.15547395750761148
104044,-0.180010750925557
104045,-0.20113088417527655
104046,-0.21962715827495966
104047,-0.2342755992192643
104048,-0.24688066986268983
104049,-0.25670929317868557
104050,-0.26398871728488366
104051,-0.26907218061653276
104052,-0.2719862836171357
104053,-0.2730875262741805
104054,-0.2710740176821574
104055,-0.26824951171875
104056,-0.26477311349524874
104057,-0.2599201662916644
104058,-0.2561652016279044
104059,-0.25268879967314517
104060,-0.24794363997598162
104061,-0.24292317180298134
104062,-0.2387701809485709
104063,-0.23549116454203478
104064,-0.23173620317899468
104065,-0.22917207734844386
104066,-0.2257703400697607
104067,-0.2230386921217581
104068,-0.22058235064037668
104069,-0.21814094381636193
104070,-0.21695011029303057
104071,-0.2148138795372552
104072,-0.21449376809411907
104073,-0.21249518956706634
104074,-0.21084659351994528
104075,-0.20961095430253185
104076,-0.207366943359375
104077,-0.20620921157046543
104078,-0.20488072840156962
104079,-0.20243932172103155
104080,-0.20230166992284698
104081,-0.2000277879429108
104082,-0.19876227424446744
104083,-0.19743379351526943
104084,-0.19613840476179037
104085,-0.19513003762836306
104086,-0.19346650792849035
104087,-0.19255098044122765
104088,-0.19036993681582734
104089,-0.1889966452261876
104090,-0.18663313650246408
104091,-0.18365606790621103
104092,-0.1813672489728213
104093,-0.178955718925946
104094,-0.17663702321534122
104095,-0.17527867030130734
104096,-0.17314243940201926
104097,-0.17056338379348746
104098,-0.1683823357193252
104099,-0.1668415168458641
104100,-0.16444492791426896
104101,-0.16349952106667984
104102,-0.16108799345946984
104103,-0.1593796465846779
104104,-0.1580661147203069
104105,-0.1560525917772576
104106,-0.15364106560516552
104107,-0.15223789365058346
104108,-0.15092436436935988
104109,-0.1493686042371283
104110,-0.14856084215571247
104111,-0.14645449305645586
104112,-0.14463837919722425
104113,-0.14369296919238464
104114,-0.14231967774621893
104115,-0.14126650362713858
104116,-0.13882509709011318
104117,-0.1371466300062128
104118,-0.13594086857054022
104119,-0.13395722584890252
104120,-0.1323865200090593
104121,-0.131072998046875
104122,-0.12895171012850157
104123,-0.12780888156819298
104124,-0.12521488685355325
104125,-0.12384159526387746
104126,-0.12184300898728337
104127,-0.11927890066498395
104128,-0.11714266976569587
104129,-0.1151590267570328
104130,-0.11409091109212235
104131,-0.11213715576740309
104132,-0.1105365567902174
104133,-0.1092529296875
104134,-0.10792761665499313
104135,-0.10694916691211044
104136,-0.10539339874332027
104137,-0.10407988610928094
104138,-0.10464540327568075
104139,-0.1032272770028884
104140,-0.1019287109375
104141,-0.1020514082739976
104142,-0.09976258962759721
104143,-0.09961000144994683
104144,-0.09722837774331054
104145,-0.09687836469576953
104146,-0.09487977597951368
104147,-0.09373692976752206
104148,-0.09230072754649046
104149,-0.09073000922128606
104150,-0.08959898493417684
104151,-0.08833344195970326
104152,-0.0868673503326783
104153,-0.08725037943912375
104154,-0.08540437732189755
104155,-0.08491671864705747
104156,-0.082550048828125
104157,-0.08220003032718269
104158,-0.08023133503526307
104159,-0.079498291015625
104160,-0.0777899282112303
104161,-0.07737700869414754
104162,-0.07626404873094755
104163,-0.0750732421875
104164,-0.07365510543847016
104165,-0.0724493506042644
104166,-0.070343017578125
104167,-0.07032806856980332
104168,-0.06904756869395312
104169,-0.06773407414215293
104170,-0.06659121157002046
104171,-0.0654303059133981
104172,-0.06553804433932867
104173,-0.06341676302244818
104174,-0.06285126092459935
104175,-0.06283631062467332
104176,-0.06071503016883297
104177,-0.060287167240305604
104178,-0.06011962890625
104179,-0.05838135918758706
104180,-0.05766327178229032
104181,-0.05537445327940263
104182,-0.05541930661882712
104183,-0.05436921782170372
104184,-0.05281036160425145
104185,-0.05252013755801027
104186,-0.050934451998714346
104187,-0.05052154367540552
104188,-0.049393620496397374
104189,-0.0482177734375
104190,-0.04707489665782702
104191,-0.04573150982981015
104192,-0.04353240661635293
104193,-0.04219208200514103
104194,-0.04092346045370096
104195,-0.039720768266832775
104196,-0.03843719526738314
104197,-0.03831451386050456
104198,-0.03842224152321374
104199,-0.036256103566162726
104200,-0.035858154296875
104201,-0.036025696075172205
104202,-0.035828246234523214
104203,-0.03473022236374565
104204,-0.0335693359375
104205,-0.03355438147579503
104206,-0.03355438133228234
104207,-0.033416748046875
104208,-0.03367705915142287
104209,-0.03155578328788153
104210,-0.03111297450824057
104211,-0.03111297436473688
104212,-0.030122669546095136
104213,-0.028824155718336495
104214,-0.02856384705347563
104215,-0.02839630355306301
104216,-0.0260775732565493
104217,-0.0262451171875
104218,-0.026062616642190835
104219,-0.02412384318960566
104220,-0.02349853515625
104221,-0.021622610195133878
104222,-0.021194759895490266
104223,-0.019028615193459737
104224,-0.01761045218209331
104225,-0.016572250750469766
104226,-0.015169044209995028
104227,-0.013915413284735377
104228,-0.01368803686894837
104229,-0.01188689756280343
104230,-0.011321420005168528
104231,-0.011566763301574098
104232,-0.011566763014548712
104233,-0.009292902848136662
104234,-0.0091552734375
104235,-0.009125355903474316
104236,-0.008559880785525536
104237,-0.006698908133470777
104238,-0.006531360901791167
104239,-0.0055260772246881204
104240,-0.0040899540777566395
104241,-0.0031295475627656313
104242,-0.0016186277105367309
104243,0.00048768350205150935
104244,0.0009304874023509482
104245,0.0019058556980682086
104246,0.0034646404475230127
104247,0.00335693359375
104248,0.0054931640625
104249,0.005783379067603596
104250,0.005478203142840903
104251,0.005783378780578209
104252,0.005660713159800478
104253,0.0079345703125
104254,0.007949531806200866
104255,0.008209822819340896
104256,0.009245044121852213
104257,0.010696114267979057
104258,0.0119317796042335
104259,0.0128173828125
104260,0.014403111137782523
104261,0.015549002345478293
104262,0.0165094174710688
104263,0.01799040830846191
104264,0.017897671989527346
104265,0.0201416015625
104266,0.021299496091777975
104267,0.02291811031240971
104268,0.0250543410681851
104269,0.02630497177288495
104270,0.028898966487560723
104271,0.030227366277121623
104272,0.03237856096625062
104273,0.034942626953125
104274,0.036238151897628496
104275,0.03756655010855877
104276,0.03942753438491832
104277,0.04081579076906448
104278,0.04215915262632475
104279,0.04414279563498783
104280,0.04583622808736788
104281,0.04690434389575763
104282,0.04931581969584347
104283,0.05157470703125
104284,0.05287023915125308
104285,0.05422856494192824
104286,0.05645751953125
104287,0.05778298626295783
104288,0.05892885852733477
104289,0.06152285295496714
104290,0.061690407792676295
104291,0.06364411719419646
104292,0.064239501953125
104293,0.06623811162183783
104294,0.06651335307839946
104295,0.06678859396093734
104296,0.06642063498522574
104297,0.06767127387002303
104298,0.06910734664498358
104299,0.06913728240477911
104300,0.0711358932215836
104301,0.07253912100155696
104302,0.07374485631842455
104303,0.07498052839966204
104304,0.07630891398170045
104305,0.077314254345242
104306,0.07876528947495168
104307,0.07875032066222952
104308,0.0787353515625
104309,0.07849005332826964
104310,0.0811318492217242
104311,0.08145199424620742
104312,0.081329345703125
104313,0.0811767578125
104314,0.0811318474995989
104315,0.0788579989575169
104316,0.07887296906180825
104317,0.07773000100977336
104318,0.07653923838041748
104319,0.07411280237818817
104320,0.07167139569765009
104321,0.069122314453125
104322,0.06770410968035094
104323,0.06511011510918786
104324,0.06266870842867416
104325,0.06186085349627214
104326,0.059159186083222993
104327,0.056900311233195645
104328,0.055344487956548845
104329,0.053163340286396535
104330,0.0504616745954997
104331,0.048403168866981
104332,0.044938564296955905
104333,0.04124650854246246
104334,0.039095304094623404
104335,0.03637866715129764
104336,0.0330367059580421
104337,0.029207034569824354
104338,0.026460451677498192
