124,125
4.050635162587413e-05,-4.141626132484631e-06
2.3228947431327956e-05,-2.9664156094967937e-05
2.822851755305399e-05,-7.218993152033319e-06
1.3805619491084228e-05,-2.4204754928639544e-05
2.857956237608336e-05,-1.8348206390469534e-07
1.7140512945610316e-05,-2.3489374393011668e-05
1.151788042688489e-05,-2.02926473274253e-05
2.8053933395480977e-05,-2.2970429088687635e-05
2.305592013195097e-05,-1.8723006570126354e-05
2.094829416989033e-05,-2.7101171875761375e-05
1.2764443270574026e-05,-1.938984318458162e-05
1.5080796500986646e-05,-2.3948880706387045e-05
1.85350129419806e-05,-8.671278726185065e-06
1.3060917343464823e-05,-1.8483501770894416e-05
1.1145386374984183e-05,-1.180288816443492e-05
5.76985062560745e-06,-2.2321712722952012e-05
5.849137250234458e-06,-8.46339155412341e-06
4.0212893145118174e-07,-2.2066633827994483e-05
7.998001519250854e-06,-3.7617943142281213e-06
-6.4260406867727104e-06,-2.3273212318273618e-05
7.218604575647099e-06,-8.288398685552678e-06
-8.095217618866091e-06,-3.530570387653526e-05
7.556052093241914e-07,-2.3034912845923234e-05
6.529794180326966e-06,-3.653337814084014e-05
1.9344353211868213e-06,-3.0960385136325035e-05
8.925298758944293e-06,-3.4803739578739774e-05
9.066855625670055e-06,-1.870846748404219e-05
1.0828696959850691e-05,-2.484866098787823e-05
9.768700046742892e-06,-1.1760875549298541e-05
1.559451357181898e-05,-1.8666332448197166e-05
6.821660874216061e-06,-1.5176675111765989e-05
3.1511011773552635e-06,-2.9478334111572327e-05
4.0114340826283875e-06,-1.8269206437478627e-05
-4.937009019459385e-06,-3.356637639583621e-05
3.980268109372729e-06,-1.1344809874416675e-05
3.2796670203732873e-07,-1.9266982958661516e-05
3.167623292839441e-06,-8.645368442202425e-06
-1.2515510576861825e-06,-2.2145254360712373e-05
-6.388957074347085e-06,-1.672291146125308e-05
-2.219249137524384e-06,-2.140153924464249e-05
-1.0485484465120072e-05,-2.1608307263003456e-05
-4.2361706033400265e-06,-2.1697989809769042e-05
-1.5067014970341326e-06,-9.757886791877279e-06
-8.23995497134699e-06,-2.328003944613267e-05
-9.094411561336431e-06,-1.3489406317045342e-05
-1.4165779724674484e-05,-2.8295033621608772e-05
-9.491948102872108e-06,-1.5519353820168302e-05
-1.4345552859768034e-05,-2.5592475972956065e-05
-8.43806025395106e-06,-1.5588182763735228e-05
-8.8351570989366e-06,-2.0935653135851e-05
-1.3246747834649166e-05,-1.674944927309095e-05
-9.103652755186618e-06,-2.3945354253953126e-05
-7.990204735128707e-06,-1.3368340225227993e-05
-9.530469597202748e-06,-2.0070612823467217e-05
-9.36572984778196e-06,-1.4428389281094044e-05
-1.0992875016627764e-05,-2.656445064085462e-05
-1.1036723958460228e-05,-1.5569753409233773e-05
-1.1009013721540393e-05,-2.6574677955608878e-05
-4.192821314749107e-06,-1.157718858663808e-05
-7.793295394253803e-06,-2.574238970788517e-05
-1.4434423362726966e-06,-1.2103079679990749e-05
-9.032804558529909e-06,-2.777899090770101e-05
3.4164637895450272e-06,-2.2655461509823774e-06
-4.099295972211219e-06,-2.5221036829017173e-05
-3.2739886811416356e-06,-1.4462210218101185e-05
-2.193749213325959e-06,-2.4219645961060713e-05
-1.2287311884815951e-05,-2.0454866945114633e-05
-5.493210779843553e-07,-2.194968627564304e-05
-2.005538280976156e-06,-1.3989130675038186e-05
-1.0025987443633067e-05,-2.8531112338570827e-05
3.2101096768914763e-06,-1.0113326579942576e-05
-6.552168265954893e-06,-3.3248941229278014e-05
4.211860196542567e-06,-1.3853306121651998e-05
-4.729375200774594e-06,-3.695543158284336e-05
4.792629721634597e-06,-1.7756369722985592e-05
4.524059773519139e-06,-3.5366408888793646e-05
1.4139839806451946e-06,-2.895343705596547e-05
-1.0883180678647326e-06,-3.7142099303940726e-05
2.7639271102795317e-06,-2.89732994776201e-05
6.3409924600571325e-06,-3.841094553953186e-05
7.115859032246654e-06,-2.8197647986494413e-05
4.137195529012975e-06,-4.358278627013593e-05
1.0482187042954212e-05,-2.5671528369989226e-05
8.503256297565929e-06,-4.193538080067347e-05
1.6668973059668933e-05,-3.057413256802761e-05
1.6801847921894787e-05,-5.598620357611567e-05
2.1692259922505396e-05,-4.889700187590609e-05
5.0262882484517605e-05,-6.251448525471425e-05
1.9170836348866384e-05,-9.869139917315114e-05
2.533263879234458e-05,-0.00012717820544396905
-2.7802702531383877e-06,-0.00016884146580033844
-3.838321238370392e-06,-0.0001897764191894122
-1.620207624154775e-05,-0.00020862248613817696
-2.9755237120821515e-05,-0.00022927847158328463
-4.014621727095082e-05,-0.00022594291834626017
-6.431486382924284e-05,-0.00022037172043950237
-6.683411702447387e-05,-0.0001791799909234202
-8.810208493011229e-05,-0.00017009949125505448
-0.00010647023650045355,-0.00014963766484273137
-0.00011206739878799374,-0.00013656233862465486
-0.00012543661279734172,-0.00011981441537039914
-0.00012217752926525113,-0.00010954779645059599
-0.0001368998514521139,-0.00011048671859174275
-0.00012941539952793764,-0.0001144020877407004
-0.0001291116103238814,-0.00011115522374890928
-0.00011817001885215938,-0.0001265309665459034
-0.00011659792365477375,-0.00012264558108215684
-0.00011329030432237755,-0.00014495191072190042
-0.000110579488993314,-0.00015895664358215477
-0.0001022666816414333,-0.00018526709946839993
-9.746701432483611e-05,-0.0002019219396447027
-8.706931290328029e-05,-0.00022123290877737906
-8.340404996069665e-05,-0.0002385159918243664
-8.178331548360175e-05,-0.0002575572155559781
-8.240343401420762e-05,-0.00025423361806666916
-8.212654194497232e-05,-0.0002467417097469569
-7.94387484933135e-05,-0.00021657209459084907
-9.131982087606993e-05,-0.000208603289957236
-0.00010146848004469232,-0.00017637946794035904
-0.00011279333386776307,-0.0001732287687215141
-0.00011047765229498171,-0.00013343936052150583
-0.0001187393243457132,-0.00012493363312015315
-0.00012196120106936612,-0.00010091334750887929
-0.00012540374396851814,-9.656943247777662e-05
-0.00012925734776006236,-7.698753136321829e-05
-0.00012915199236094592,-7.903741169663958e-05
-0.000131979216059214,-6.678766538277179e-05
-0.00012991930074264405,-7.861489888760845e-05
-0.0001227262146245575,-6.219768672916159e-05
-0.00010778395968494112,-7.686229786152101e-05
-0.00010666705220475887,-7.950756441168453e-05
-9.69941401403599e-05,-0.00012324532108411623
-9.748577296216642e-05,-0.00014584920830582686
-7.882997048834497e-05,-0.00019396144708559363
-5.235009479426501e-05,-0.0002381417431764174
-4.703938880639183e-05,-0.0002857273825876884
-2.5978102499121987e-05,-0.0003070383290295011
-1.027993999103158e-05,-0.00033348571353062625
-7.718922737125933e-06,-0.00033185950130441665
-1.8120085203779253e-05,-0.0003270740227503381
-1.1026934931703374e-05,-0.00028740029213611987
-3.08869949185892e-05,-0.00026333930689878977
-4.713025807434019e-05,-0.00022073049703420422
-5.364232374509838e-05,-0.00017855883629212718
-6.374777649095182e-05,-0.00014350506624320907
-6.816544856439526e-05,-0.00010920162555873796
-6.002905387539994e-05,-6.368018330842481e-05
-5.989876441962713e-05,-4.20885013038852e-05
-6.704366418837913e-05,-2.3400690452411394e-05
-5.97724317432221e-05,-5.4786421948168344e-06
-5.196513214775253e-05,2.823910646858057e-05
-6.0430060253314486e-05,3.3031011642586644e-05
-4.3258108968595186e-05,6.770828794194727e-05
-5.470311805891864e-05,6.108808046778216e-05
-5.1584273206457165e-05,7.754623131576623e-05
-5.226673933232847e-05,7.492868413846606e-05
-5.197680105486904e-05,9.321257664188713e-05
-5.002958605503518e-05,9.023168822095025e-05
-4.820715991855104e-05,9.857748742757083e-05
-5.102211863129753e-05,9.419184048644029e-05
-4.950060585978923e-05,0.00010154199119238142
-4.650625030958257e-05,9.536085321392796e-05
-4.167888144580016e-05,0.00010756249803259381
-4.432239181858432e-05,9.890615835300163e-05
-3.925082525447886e-05,0.00011228168760575358
-4.342241914181184e-05,0.0001010662901937471
-3.8147722862334375e-05,0.00011230713001783688
-4.274276719857831e-05,9.827386126206006e-05
-3.623407439487423e-05,0.00011091836651048381
-4.0432442581885185e-05,9.783769699843844e-05
-1.4409027887942276e-05,0.00013543430102004649
-1.2316360631896142e-05,0.0001304623773243775
-7.05250474210202e-05,9.847357981136381e-05
-9.341342619665717e-05,9.840230844157812e-05
-0.00013965493488814746,9.087579879899722e-05
-0.0001467401678546933,9.658206504961503e-05
-0.000178837276367437,8.79934016933255e-05
-0.00018807341318413746,7.403749978712173e-05
-0.0001827284253299335,8.52754262674456e-05
-0.0001790023205200179,7.693882417268454e-05
-0.00017584817478548046,8.597853469910515e-05
-0.0001605396036160924,8.166502804817625e-05
-0.0001666245205239108,8.187439450441306e-05
-0.00015623387508707253,8.094654435862263e-05
-0.00014871468140035892,9.222508908260325e-05
-0.0001492733948697822,8.12615649165291e-05
-0.00014920496907284004,8.34625660441676e-05
-0.0001444294500621654,7.589351693768848e-05
-0.00014336189268569208,7.911791987848364e-05
-0.00013773298508192323,6.982413835116909e-05
-0.00014466755041972032,6.618032798233332e-05
-0.0001324976519091668,6.415215728900079e-05
-0.00014144738745824458,6.20645821111525e-05
-0.00010781384560564664,8.607418358729416e-05
-0.00012424829320450173,7.438725102649345e-05
-0.00015471843722495042,4.178009551727745e-05
-0.00014287502909393585,5.4518349620530405e-05
-0.00013862636667383803,4.8170365581919454e-05
-0.00014068434642502598,5.135644313415026e-05
-0.00013469122436889105,4.3208463171053266e-05
-0.00013012171545119633,5.33366555844248e-05
-0.00012869361758746553,4.594609931164426e-05
-0.00012862176354307885,4.643542742366096e-05
-0.0001248728282111771,4.2690515578307965e-05
-0.0001244820674174387,4.395344762093372e-05
-0.0001253491849624581,3.280344052669653e-05
-0.00012503160958391162,3.8281554343979264e-05
-0.00012493636839760894,2.199245127358114e-05
-0.00012022439157984149,3.308763295939124e-05
-0.00011828161799104889,2.7013910028871118e-05
-0.00012190124664195142,3.0266820404822834e-05
-0.00011743097193495185,2.0627915754615524e-05
-0.00011393672091800821,3.136018063519736e-05
-0.00010204324837222657,3.572220070460514e-05
-0.00010847062991644658,3.246257838795166e-05
-0.00010246212893312844,2.9155786235111045e-05
-0.00010482641641586159,2.5328195416869612e-05
-8.2756212986708e-05,4.336086655191851e-05
-8.813748201188074e-05,4.102404953640217e-05
-0.00011574472886527137,1.48285148632661e-05
-0.00011318291643515885,4.408245387737319e-05
-0.0001228745860902235,2.1852174019789132e-05
-0.00011513221377728377,3.899871910052886e-05
-0.00010698474042350662,3.4596849998499814e-05
-0.00010922551090604621,2.7655744373699864e-05
-0.00010033292392712014,1.8885026777045733e-05
-9.65302685878756e-05,2.453863608777001e-05
-9.903550984148185e-05,1.9381674772369575e-05
-0.00010102526518641969,3.031785038523417e-05
-9.688954361680145e-05,2.5303738052492824e-05
-0.00010618725560072847,2.8768285794521027e-05
-0.00010800232688917037,2.1176684134005755e-05
-0.00010536167824021342,2.9346050741009142e-05
-8.77011588223043e-05,3.847026701237305e-05
-8.943269524591327e-05,4.888525606134969e-05
-0.00010816591663571672,3.667067652387616e-05
-0.00012400341815970564,6.111455183870708e-05
-0.00013455652416707336,7.442127726155845e-05
-0.00014265514018688122,9.553303896683044e-05
-0.00013057427354830692,9.958832632302574e-05
-0.0001336004667312679,0.00010209061696716061
-0.00013151339966239697,8.557160598410342e-05
-0.00013547862207357477,0.00010812282706452623
-0.00012674914495128752,7.743726761961019e-05
-0.00011968943091203941,6.687217671804271e-05
-0.00014250800626069345,9.121487096542172e-05
-0.00011494163830734477,5.14728709346743e-05
-0.00011669595515193996,1.3150436020413112e-05
-0.00010253310652688873,-1.1430858128233137e-05
-0.00010516936429140638,-6.0271228713275945e-05
-9.892553542646768e-05,-8.040389151876347e-05
-0.00010657440785984862,-0.00014769440102164672
-0.00010542584387795439,-0.00017064198316480022
-0.00011279958728144831,-0.0002176656414299436
-0.00011053500293896515,-0.0002600955772956661
-0.00011757155127868194,-0.00030325364275808956
-0.00011737653674950165,-0.0003388584466849098
-0.00013310958632776598,-0.00037287188910368243
-0.00012854754064841608,-0.00038876808840712114
-0.00013539052440914693,-0.0004108148116551823
-0.0001423410577050635,-0.00043762480762078466
-0.00013049616149369149,-0.0004330204553185554
-0.0001439381307975457,-0.00046359634239102963
-0.00015629599241081857,-0.000486105882161534
-0.0001430242713279962,-0.0004833422413884489
-0.00015670248459241466,-0.0005176747375778829
-0.00016953028808584499,-0.0005210439036225931
-0.0001686867002114197,-0.0005258599609367187
-0.00017878181254689515,-0.0005333417453312726
-0.00019270743666734602,-0.0005402716647524306
-0.00019452964325004197,-0.0005432621396923497
-0.00020436362401362348,-0.0005421509957622585
-0.00019020159706068977,-0.0005272039548457185
-0.00021067990545670613,-0.0005584386856518381
-0.00020328402758803732,-0.0005289217662692432
-0.00022323763926785322,-0.0005617360579877322
-0.00022069365425394458,-0.0005429683662130864
-0.00022199439844000063,-0.000553651911747758
-0.00023725345803038693,-0.0005525899362698427
-0.00023513783515220378,-0.0005595247790088903
-0.0002427061731523009,-0.0005487317831420901
-0.00025280377588753864,-0.0005585295341433464
-0.00024337226539095376,-0.0005344549259971545
-0.0002471997782964638,-0.0005435459347900148
-0.0002468631846022107,-0.0005301139670446562
-0.0002682412266480228,-0.0005493735486247948
-0.000263094162563471,-0.0005366985194783818
-0.0002694982146461668,-0.0005443987798402859
-0.000270903972998351,-0.0005310290309171723
-0.000264419711957519,-0.0005263346839009481
-0.00027085052061919516,-0.0005167641571633178
-0.0002638946630639481,-0.0005057042414766311
-0.00027476460401915445,-0.0005024424947623762
-0.00029159102956571355,-0.0005218672740089219
-0.00027485576987700433,-0.00047570874092723296
-0.00027835974628446375,-0.0004872683863665146
-0.00029593586264180835,-0.0004924899710341195
-0.00029126518674296107,-0.0004770293820741372
-0.00028748209039165725,-0.00045882838016667054
-0.0002997545351073295,-0.0004673759271130078
-0.00027917661098942194,-0.0004373471375026182
-0.00028589581196097837,-0.0004332168541073441
-0.00027732826316020974,-0.0004249129246254146
-0.0003003881119295956,-0.00044437555576793607
-0.00029069412679356933,-0.0004235648754566252
-0.000300059162502841,-0.0004417697571638269
-0.00029794304472898175,-0.0004206373439643255
-0.0002988702951374374,-0.0004384950338357659
-0.0002983170569190481,-0.00041983422112133056
-0.00029513545760063997,-0.00042218743007148475
-0.0002913874559035814,-0.0004071196431221421
-0.00029009966078466954,-0.0004207641439197414
-0.00027718424106337107,-0.0003951617245897165
-0.0002869098211915371,-0.0004116011703678651
-0.00028488127248960023,-0.00040481855932494924
-0.0002912322074434046,-0.00041774097379234786
-0.0002870814549143694,-0.00041057624988789364
-0.0002947315767214054,-0.0004151788865686484
-0.0002622823755658173,-0.0003755360452412612
-0.0002632927400090591,-0.0003872906100400452
-0.00025507545547609944,-0.0003772004219359833
-0.00026711264141771225,-0.00039318388027798816
-0.0002504315567922961,-0.0003775343119574954
-0.0002601843808143042,-0.0003962994723205807
-0.0002592805865698765,-0.0003893413033257881
-0.0002707427773005745,-0.00041007142238626575
-0.00025827007316854474,-0.00038679313896877986
-0.00025425186362018924,-0.00039110002909602075
-0.0002538370221334764,-0.000376694560758504
-0.00023828768394706758,-0.0003721874158572722
-0.00024315991047870738,-0.0003751505076305578
-0.00024282510979138695,-0.0003824336395224996
-0.00023750879998620252,-0.00036911328474359916
-0.0002434420050507238,-0.0003827604979607253
-0.00023126329940499193,-0.00036262495015479716
-0.00023167785238997887,-0.0003716200588213961
-0.0002262905046684517,-0.0003538315911379067
-0.0002235364076566016,-0.0003545337389972713
-0.00021972602108401144,-0.00035071233427638244
-0.00022105544803486353,-0.000353386666027876
-0.00020736566335859,-0.0003433791798019431
-0.00022507923915448584,-0.0003617475031854162
-0.0002297071057029132,-0.0003536576345191227
-0.00022550791347962298,-0.0003561010670856548
-0.00020899396611371733,-0.00031848622217951994
-0.0002097223261998396,-0.0003198527695738281
-0.00021356513147453984,-0.0003030815561652344
-0.00021874143833746572,-0.00030745577672665184
-0.00021601800435018805,-0.0002951418803597466
-0.0002173355052210139,-0.0002954261946524449
-0.00022196099750865784,-0.0002991859599096991
-0.00023586958539819751,-0.00030863183241665554
-0.0002245061517359033,-0.0002906698806774298
-0.00021141086829108049,-0.00028302417696283793
-0.00020224536236368898,-0.00025406380405481043
-0.00019554817760210352,-0.0002543449924206594
-0.00019753351907975285,-0.00023870554514291158
-0.00019949716245890167,-0.00025249085946541704
-0.0002074110500516822,-0.0002476606609672723
-0.000210344826032212,-0.0002560446638788498
-0.00021073447253227448,-0.0002565529858332172
-0.00020331935780248497,-0.00025318752377160247
-0.00019370628312848532,-0.0002439830333903883
-0.00018694328301271059,-0.00023307188711188051
-0.00017707739238583778,-0.00021793279471767388
-0.00017622556919587163,-0.00021460434494221755
-0.00017351835330464314,-0.00021690401997541482
-0.00018173699380089934,-0.00022632699063661818
-0.00018587250687388047,-0.0002343144196977515
-0.00019608106369260397,-0.00025564814635516635
-0.00018545311827958174,-0.00023351536637829503
-0.00018734102561211182,-0.00024672377802180184
-0.0001599118543882348,-0.00021718586344478242
-0.00015994628386442584,-0.00022593346771060605
-0.00015509184535884634,-0.00021919539947532155
-0.00016206439423501463,-0.0002291175774607101
-0.0001619972992340973,-0.00022829026053422684
-0.00015392556071446988,-0.00023698362049649817
-0.0001565444567903208,-0.00022963175108301617
-0.00015102186547295626,-0.00023422175113644832
-0.00016598580895098333,-0.00023049277158820113
-0.00014522397904992906,-0.00021406913642193644
-0.00015660941905026827,-0.00022214673656810566
-0.00015508921179179956,-0.00021183055965448149
-0.00013999454282503305,-0.0002008419125008685
-0.00014512005440402853,-0.00020382311218585965
-0.00013890033425044556,-0.0001902329476183954
-0.00013749585517308204,-0.0001883813387520874
-0.00012841669708180288,-0.0001699265814168408
-0.00014787586446556681,-0.00018423240959163225
-0.00014184423999748257,-0.00017279968903227523
-0.00015153241701072748,-0.00017896743696406333
-0.00014242273696239287,-0.00016804184857387354
-0.00015004084609384686,-0.00018017444802555997
-0.00014976825625869443,-0.00016397733875416333
-0.00014294998702313135,-0.0001629688333340623
-0.00013713191593598957,-0.00013557400629328416
-0.00012618203050544351,-0.00012209813523071685
-0.00012640963698146867,-0.00010881748555833658
-0.00013691100837830806,-0.00011901388560126
-0.00015100109549165362,-0.00011648225743670414
-0.0001523422553903109,-0.0001284214120073231
-0.0001605179285509368,-0.0001312765775434241
-0.00016621886745632583,-0.00013309221096907076
-0.000159681236749978,-0.00011474571187631999
-0.00014201811649605984,-9.923938542340332e-05
-0.000148931150560651,-8.747379676669495e-05
-0.00014615212606139898,-8.618070653735639e-05
-0.00014356557916168588,-7.43964903588929e-05
-0.00014400394215743478,-7.739170876151433e-05
-0.00015215396092349472,-8.30177605176114e-05
-0.0001620089563795284,-9.444779686400272e-05
-0.00015862508086925234,-9.10832131461446e-05
-0.00016474431690198567,-9.278369743501769e-05
-0.00015854528965500458,-8.242756127093731e-05
-0.00015259723521054424,-7.914157194448452e-05
-0.00014900508622986498,-6.691569140502402e-05
-0.00014937206738369782,-7.085479535312796e-05
-0.00014427977725829213,-5.054937471664207e-05
-0.00014253408289286357,-6.282621659983507e-05
-0.00014560175332333633,-5.6684978951976084e-05
-0.0001501711445019075,-6.472287561073817e-05
-0.00014697434208977108,-5.7089271123188145e-05
-0.00014834430203923435,-6.372348117435913e-05
-0.00015248608204839633,-5.2182302362576846e-05
-0.00015108449331165734,-5.902480804163007e-05
-0.00014054954573209408,-3.4803623229099586e-05
-0.00014410821058446674,-5.154955719129033e-05
-0.0001421046307927019,-3.4897827989719425e-05
-0.00013658008924375293,-3.8309261111462444e-05
-0.00014652364436852218,-4.1595266375663034e-05
-0.0001403784142869247,-4.52998870586633e-05
-0.0001401962168107986,-3.382063836702292e-05
-0.0001519780222873111,-4.398050652774404e-05
-0.0001472590841414375,-3.2064693797713314e-05
-0.00014245199910307188,-2.957141935043998e-05
-0.00015070187862420856,-2.630083100110914e-05
-0.00014898541025560507,-2.3176683894231363e-05
-0.00014782762667764492,-1.5532585903354265e-05
-0.0001478017453410102,-1.8368852005741184e-05
-0.00014164518859236251,-9.123071637171473e-06
-0.00014324408326520286,-1.6706251683247023e-05
-0.00013925400749665326,-6.5804526077648755e-06
-0.00014204962433878517,-1.6078574216904346e-05
-0.00013823029437440743,-1.1097414443478018e-05
-0.0001505331790808577,-3.4050912559475354e-05
-0.00014065315827072814,-3.563417910667257e-05
-0.00014547451579072487,-4.594619305181629e-05
-0.0001323093610512592,-4.382703935640134e-05
-0.00013951795767102964,-6.517842218109692e-05
-0.00011453742267519864,-4.80381206915126e-05
-0.0001150348756028873,-5.913998804995245e-05
-0.000108570875615898,-5.1961443436193126e-05
-0.00011566241500710066,-6.840817523151422e-05
-0.00011467817941114683,-5.624498649205763e-05
-0.00012141204587804066,-6.487200488615557e-05
-0.00012112629443420296,-6.307199495332864e-05
-0.00011978590873506829,-5.4920378093284426e-05
-0.00011319256214227551,-3.824410211861107e-05
-0.00011888330833822551,-4.521648999679232e-05
-0.00010987194010311742,-2.7923097318085228e-05
-0.00011359075276958288,-2.9804547829422005e-05
-0.00011948044955198346,-2.6832413337876587e-05
-0.00011884523230613901,-3.0061720084254495e-05
-0.0001235668572461496,-2.2706601460864216e-05
-0.00013451069032867783,-3.697877051801899e-05
-0.0001308640670800749,-2.6322986035345557e-05
-0.0001292291755358649,-1.9134648478039543e-05
-0.00011473030581633979,6.670269589404194e-06
-0.00010756909122316899,1.1008054205921266e-05
-0.00011651691997059892,1.5591308804614828e-05
-0.0001185308032535784,1.8205989305034093e-05
-0.0001275527684096144,1.5917742325045177e-05
-0.00013129165224958018,5.912446484537615e-06
-0.00011764686698682637,2.1109648229880513e-05
-0.0001169038438170271,1.307640801547972e-05
-0.00012385287636645215,1.7193624091092437e-05
-0.00012084639445037818,7.847063934305783e-06
-0.00011612737631134504,1.538922971598624e-05
-0.00012609247855146884,1.1998375623308974e-05
-0.00011242121700790869,2.1226612682782055e-05
-0.00013115302781321314,-3.2775768379147307e-07
-0.00012700719931660955,9.8394754734485e-07
-0.0001136751676482446,1.0062078401504792e-05
-0.00010967141690126651,4.1565242252939535e-06
-0.00010495633823879568,2.9149115957542355e-06
-8.850579357368194e-05,1.6373089660252283e-05
-7.496876879737439e-05,1.3537829527357535e-05
-8.051225401695633e-05,8.549649709165538e-07
-8.811065174940626e-05,-1.8777727420171705e-05
-7.361573556375967e-05,-3.3414089560006706e-06
-7.245855443695085e-05,-2.0487070975129595e-06
-7.776710086449766e-05,-2.8829094828054435e-06
-7.924614427764245e-05,3.096910759620224e-06
-8.380045312854042e-05,-9.972053406695104e-06
-7.743744502977614e-05,9.580010853370768e-06
-7.58117341007695e-05,1.700878066357153e-05
-7.041953326999577e-05,1.4194339931647363e-05
-8.020534320773608e-05,1.0637398003954289e-05
-8.279163942856598e-05,1.2529172191401655e-05
-8.510626301417311e-05,1.3220538953423344e-05
-8.176984036772217e-05,2.854013945547637e-05
-8.069568314915721e-05,1.7246222588867857e-05
-8.104609814281788e-05,3.240270305502883e-05
-7.790068420614283e-05,4.53889838184038e-05
-6.471447116934368e-05,4.936598241419907e-05
-7.391236407942353e-05,5.038228179305845e-05
-7.653195642087429e-05,4.886856135094518e-05
-7.088566418368597e-05,4.97119224143878e-05
-6.594439348892913e-05,5.459849300105766e-05
-5.600875133643804e-05,6.312558218550059e-05
-5.4656346038770615e-05,6.034354586846721e-05
-5.432848386418378e-05,6.353533001934992e-05
-4.406851631532667e-05,6.789539485252547e-05
-4.491115090604738e-05,7.243133780113979e-05
-5.3875593144803586e-05,6.252997287830161e-05
-3.44819475288713e-05,6.955605363740818e-05
-4.7627692835909585e-05,5.3595227297083625e-05
-5.368524606439878e-05,4.69928512611833e-05
-5.299493995453803e-05,3.301693073109698e-05
-5.01268668574584e-05,3.7133035712038414e-05
-5.047891605484282e-05,2.4061417779023164e-05
-3.5827225150779844e-05,3.262640608141328e-05
-3.279615726711605e-05,2.5209828629946172e-05
-2.6496449251809566e-05,2.6009661774151057e-05
-2.018940214918986e-05,1.9224169399201644e-05
-1.1673760605343184e-05,2.0582558718318868e-05
-1.4344416042804149e-05,7.193645886329858e-06
-2.3693033770845083e-05,-4.73546037835421e-06
-1.2471415135862753e-05,-1.1416370036991297e-05
-1.983931251884759e-05,-7.0936460911952315e-06
-6.147131165359003e-06,-6.572905556983058e-06
-8.422680679336558e-06,4.730980276224976e-06
-1.1385615374594501e-05,1.6717624308446217e-05
-3.7473718550499525e-06,1.5174988346728744e-05
-8.17439031451311e-06,1.3599355680568243e-05
-4.287935866385909e-06,2.3690498887129184e-05
-1.665345256823283e-05,7.413817105958123e-06
-1.7141592754667193e-05,1.4149481685747849e-05
-2.586327327127154e-05,8.589533049738105e-06
-1.8085086740809658e-05,1.1285308433373623e-05
-1.9704455095476166e-05,1.694185588377429e-05
-9.123949147541703e-06,2.5396109035840695e-05
-2.732061490378797e-06,2.186622918956731e-05
-1.5206486763815808e-06,3.701772890445837e-05
1.0196298017030212e-06,3.2432788282449795e-06
1.5953676666530629e-06,-8.947804953826567e-07
-9.228842829242416e-06,-3.013985943616525e-05
-4.237485063446276e-06,-3.659722330442311e-05
-1.6768128325531058e-07,-5.5853271317528505e-05
6.205476441988959e-07,-7.260989622606195e-05
2.3850702982580503e-05,-6.137063477552383e-05
3.164131887249491e-05,-6.22963004267423e-05
4.662338043255327e-05,-4.8944098640426886e-05
4.5865648734125164e-05,-5.759340524909099e-05
4.395363396695139e-05,-5.5938149395451405e-05
4.1388091592494925e-05,-5.511676497175001e-05
3.081365192252655e-05,-6.240579888004826e-05
3.340125790580943e-05,-5.271068730367067e-05
2.7487834044737266e-05,-7.223773083746591e-05
1.44817966561697e-05,-7.396663101579278e-05
3.398664020235545e-05,-4.791740229495738e-05
3.0613039967318754e-05,-4.1087570720636706e-05
4.567972595555675e-05,-2.051610017922924e-05
3.682382170315703e-05,-2.833268719503481e-05
4.294831609777668e-05,-2.5471171240514414e-05
3.88554022445113e-05,-3.1455526527353106e-05
3.479255220061167e-05,-4.0940530108590255e-05
2.7250238509689722e-05,-4.6245988875794125e-05
3.567191369367941e-05,-3.964838710390111e-05
2.526953758800873e-05,-4.695262033736875e-05
3.322968933280807e-05,-3.956243809461171e-05
3.869396430773513e-05,-4.181974662299977e-05
3.6799360974111114e-05,-4.156144977900858e-05
4.5321915527145484e-05,-4.3567208901124146e-05
4.8397512400008665e-05,-5.9531253601177625e-05
6.171225838363774e-05,-6.142264076699607e-05
5.684951833412131e-05,-8.64474795183903e-05
6.0982997265692396e-05,-9.218872723984878e-05
6.117396117203928e-05,-0.00010637480112208879
7.969032900985443e-05,-9.904087132937611e-05
7.156461571008507e-05,-0.00012443394643442667
8.27372276570443e-05,-0.00011845888489401071
6.722823835111878e-05,-0.00013736432246048145
8.039488153332727e-05,-0.00012743650280558987
7.166250207491393e-05,-0.00014632287448792055
7.556446074584711e-05,-0.0001415038144704038
8.377627854214499e-05,-0.0001311759223100429
0.00010391925464562375,-0.00010468749478391703
8.605891026392823e-05,-0.00012043376606100534
8.576185461406338e-05,-0.00010652331145807169
8.049951175651949e-05,-0.00010174417475855213
7.612646996143999e-05,-9.291435153672653e-05
7.659509366932647e-05,-8.731060593792221e-05
5.752990256278955e-05,-0.00010333280262185688
6.277146940897737e-05,-9.178005430870066e-05
7.365546266094388e-05,-7.646146504899138e-05
6.228209437869347e-05,-0.00010174189490622631
8.501282038437243e-05,-7.12364890165177e-05
8.307060652227689e-05,-8.23457575565011e-05
8.231666907104064e-05,-7.884803696577807e-05
8.591008411896044e-05,-8.722580607760826e-05
7.133706743454811e-05,-9.536067453232389e-05
7.455321563320505e-05,-8.892965079574735e-05
7.242469457996361e-05,-8.976761418125219e-05
7.904276765700332e-05,-8.551731752673528e-05
6.021416841393068e-05,-9.11027125487651e-05
5.322149627936736e-05,-8.684218399830956e-05
6.708603093328416e-05,-6.617037011251637e-05
7.186705623184623e-05,-6.46187989473339e-05
7.285434640756991e-05,-6.738934205589533e-05
5.857368200669592e-05,-8.324475309411222e-05
6.818182550373051e-05,-6.457470048597961e-05
7.542305473079002e-05,-7.829888786551703e-05
6.0772886979277474e-05,-7.528020949896188e-05
6.077596426608214e-05,-8.595014762591907e-05
5.4066993954281484e-05,-8.08535966787868e-05
5.205416472790593e-05,-7.151774761325684e-05
6.259084741218598e-05,-5.700157509391433e-05
5.955817913936995e-05,-5.864907652132122e-05
6.024458087438405e-05,-3.336140290140201e-05
6.0924322868946336e-05,-4.174547009009534e-05
6.110752951343791e-05,-3.682624287005974e-05
5.378872997928808e-05,-5.1167033720994435e-05
5.745508970808009e-05,-4.247011676162716e-05
4.9767224640841085e-05,-5.4380107773467286e-05
6.191694564011059e-05,-3.603071307831027e-05
6.585395377113769e-05,-3.031641042955594e-05
5.431876069577759e-05,-3.676253622996981e-05
5.938029158125673e-05,-3.187189742664285e-05
5.2716345179428e-05,-3.89087801960731e-05
6.178023135724579e-05,-3.682812961397352e-05
5.71728970931449e-05,-5.244225523442348e-05
6.151974567263845e-05,-5.2373736146765665e-05
5.1697809526382475e-05,-6.560579526714523e-05
5.383269268649753e-05,-6.597505351493084e-05
5.857515444343974e-05,-6.603654691969699e-05
5.9338025777965286e-05,-6.109156533382797e-05
5.996288342008046e-05,-7.24017173458183e-05
6.310251876839108e-05,-6.253198310500504e-05
7.467935249783656e-05,-7.564928405135105e-05
5.534199177268364e-05,-0.00010683443759607712
8.321786498393154e-05,-9.807981184097302e-05
6.734861173742463e-05,-0.00013781429254274339
6.654286103392814e-05,-0.0001500534049983183
7.907131441739554e-05,-0.00015335590820920075
0.00010368197592049496,-0.00013993029517086447
9.218482851915828e-05,-0.00016599699062460572
0.000103108469781394,-0.00015619479391429223
0.00010521553817417352,-0.00016506082846880278
0.00010378669058789108,-0.00015935986858958963
0.00010364302272997049,-0.0001728821144997951
0.00010383953470563847,-0.000166359149667088
0.00010623728499983048,-0.00017177704180264267
9.165499684282965e-05,-0.00017952501494676948
0.0001080641533000621,-0.00016590469408397048
0.00010411897487774279,-0.00015485085980943412
0.00010516326333323263,-0.0001567536454550616
0.00012571963421224389,-0.00012854381622699615
0.00011497256775222503,-0.000137067078364834
0.00012350651862170093,-0.000119621320260614
0.00011228422494880593,-0.000126948743181567
0.00011731860104017126,-0.00011344344197760509
0.00011781706602840682,-0.0001162338972659363
9.93196581937513e-05,-0.00012503578646977118
0.00011635949065846219,-0.00010214357596550115
0.00012125911873558855,-8.737973481691812e-05
0.00011746846470164508,-9.790479324102586e-05
0.0001125655848662249,-9.384706272341775e-05
0.00011650357116801953,-8.090420245996299e-05
0.00011538845504486045,-7.529941411008976e-05
0.00010736752829786759,-7.83818304725707e-05
9.994178326320076e-05,-7.60366431460065e-05
9.60561337385299e-05,-6.516045286816473e-05
9.805563514391143e-05,-4.7882498814112885e-05
9.823037742706452e-05,-3.6759437782161655e-05
9.57885036690067e-05,-1.9708738327048027e-05
9.063868602802537e-05,-1.2812372798800802e-05
8.863389894985297e-05,-1.0394301206179235e-05
7.833332644157527e-05,-1.4927280020282448e-05
8.210666433755715e-05,3.970398784328186e-06
7.605032309610821e-05,-3.6296534746144603e-06
7.17152997555224e-05,6.916508590261582e-06
7.805517319551468e-05,2.0863209563207482e-05
8.65680819588837e-05,4.11504892356889e-05
8.24727979898785e-05,4.95226719667666e-05
7.617137546736183e-05,6.025471711627823e-05
6.944262347251282e-05,6.249747800187289e-05
6.745336224912107e-05,7.271951247058488e-05
5.361677309811781e-05,6.799846042969583e-05
4.2825594291436237e-05,7.361669958808937e-05
4.6919910955338576e-05,8.366087703727097e-05
4.8341828291078395e-05,9.911882720079722e-05
4.4487249008459356e-05,9.285915028540119e-05
6.278913126297655e-05,0.00012070430811097971
4.90757484150645e-05,0.00011765326853896416
5.356738122829558e-05,0.00013976525103979944
5.5099130334268974e-05,0.00013160631226746735
4.211171071623623e-05,0.00011673058467651337
5.304480583845662e-05,0.00012238116359045622
6.717708105802147e-05,0.00012157540578313925
6.486719558669087e-05,0.00010915190787168621
7.44224831746993e-05,9.88488790643264e-05
8.125286030911647e-05,9.580262847734576e-05
9.97687079053103e-05,0.00011222539149866305
9.211436122894017e-05,0.00010336406087803817
9.734550748260604e-05,0.00010706202098349196
8.495889358949443e-05,0.00010138415818521962
8.708435191425987e-05,0.00010304911592916728
8.033077278825022e-05,9.482550601131736e-05
7.698631731326479e-05,9.000092482168112e-05
8.260386309629598e-05,9.08009290105227e-05
8.335989421585765e-05,9.093502998338345e-05
8.062751000798643e-05,8.589534953920519e-05
8.276163348536684e-05,9.312992100949069e-05
7.74269106529504e-05,8.860786625009416e-05
7.873816651092533e-05,9.831970382163707e-05
6.775614036389076e-05,8.316916411064344e-05
8.510516325736617e-05,0.00011251848824708302
8.027332714532154e-05,9.961313684250025e-05
6.925402565514642e-05,0.00010367544483380846
8.53750900084004e-05,0.00012505006746735243
7.627919829743315e-05,0.0001082956040242626
7.229785876648394e-05,0.00010455562004212125
7.512649970588167e-05,0.00010692001436706025
6.790128060985537e-05,9.801673058787224e-05
7.91448660332619e-05,0.00011297969273722411
6.0323036649043146e-05,9.620434152280619e-05
6.799163293265828e-05,0.00010751839539776182
5.789579005270416e-05,0.00010421621850221584
6.470949277185149e-05,0.00010905386566647478
7.536920738855968e-05,0.00012473124207512378
8.262477229540947e-05,0.0001295532454906508
6.071709371933005e-05,0.00010726616958219024
7.864107256549872e-05,0.00013424982085627225
5.476294859165191e-05,0.00010683964581181125
5.55392978708363e-05,0.0001260018447387844
4.968287155083926e-05,0.00011178372756702664
5.2614817503953294e-05,0.00011009643314308807
7.835339138017095e-05,0.00014790645811367143
5.6928049304157695e-05,0.000132806544075955
8.070313097939864e-05,0.0001553749120594451
7.125791974580359e-05,0.00015366660592344266
7.359292474674597e-05,0.00014835643663381484
7.235764090087425e-05,0.00014654467728690652
7.090932962054018e-05,0.00014750742615396442
6.24114769971126e-05,0.00013546213801989075
6.199727534629768e-05,0.00013136641978398627
6.625985414922667e-05,0.00013550392746160126
6.966311974651048e-05,0.00013748786154713435
7.410871106661752e-05,0.00013972621536770816
8.652853940359384e-05,0.00015532506632077477
9.007311338921337e-05,0.00014770611174177853
8.923484689131518e-05,0.00015384042050766263
8.95354027675264e-05,0.00016383924224039432
8.04326176407592e-05,0.00015876735339237402
6.942347177951536e-05,0.00016308236558443016
6.66673313669159e-05,0.00017249339112416034
5.246817986663512e-05,0.00017315334312840733
4.3207875932999095e-05,0.00018511221849142203
3.094886677118583e-05,0.00018712245390199305
3.1132859511960865e-05,0.00021572909570174233
3.948415371016103e-05,0.00024138649655802534
1.224526918341802e-05,0.00023440924629452675
2.53688838789321e-05,0.00026099020756984115
2.3474282384137492e-05,0.0002688180035102332
-2.5133560239061793e-06,0.00027081945972673286
5.943995045290672e-06,0.0002916460189834138
-9.997596844753236e-06,0.00028798242223006173
-2.0353010016078617e-05,0.00028949941715759235
-2.9127891676617485e-05,0.00030226967522265673
-9.446576002028101e-06,0.00032255430245537353
-1.8888691772999655e-05,0.0003379505523926298
-9.258604172464332e-06,0.0003531041802424164
-1.0621754519322073e-05,0.00035579977001457967
-1.9629822331998866e-05,0.0003617948092602066
-2.6086387712616116e-05,0.00036343943726631865
-3.920523674862832e-05,0.0003519309736399556
-3.8049176208939476e-05,0.00035437518136591885
-3.7605076043018646e-05,0.0003565084583600939
-3.5572644622574e-05,0.0003583838952237983
-5.101394419616327e-05,0.0003486573475669052
-4.543707774529376e-05,0.0003520233195565407
-4.228730075092772e-05,0.0003523231135832323
-3.3034389820966796e-05,0.00035064152861516613
-3.509178795221277e-05,0.0003634514972968632
-2.1588936831059133e-05,0.0003599409203452519
-8.739396852589863e-06,0.0003645267089583897
-2.5198960319046304e-05,0.00033234299980437385
6.287985130168993e-06,0.00035318121861541873
1.7530939550931806e-05,0.0003184769496378769
-2.5749782030905833e-05,0.00027880057187372063
-1.967584234587306e-05,0.0002911057194682974
-5.116195091140177e-06,0.00024728978002056413
-1.4037491749429857e-05,0.0002543653815863051
-5.917206992344276e-07,0.00018464331101470784
-7.53502132452071e-07,0.00018880391948828754
-4.029901391270035e-06,9.645352394926723e-05
-5.5009978884063474e-06,3.589967329899405e-05
-2.029828562885689e-05,-1.0456731970882787e-05
-2.701336763473518e-05,-1.725772738228906e-05
-3.988675304150691e-05,-7.062668473383579e-05
-4.837134096285935e-05,-5.8781527403897686e-05
-3.925418873508556e-05,-6.02894468737799e-05
-4.730424298344422e-05,-7.221808662172922e-05
-4.2158562309752274e-05,-4.142848736171549e-05
-6.042361904007548e-05,-3.854586447300636e-06
-6.676508260817677e-05,6.284067603466175e-05
-9.536417990861661e-05,0.00010528853451009071
-0.00010134718246249092,0.0001667243078732131
-9.840098309982927e-05,0.00021730240342040163
-9.86228047873329e-05,0.00025769212316350594
-0.00011598467842527315,0.00027722484357642097
-9.769139423237488e-05,0.000312610101978445
-0.00010070889729970933,0.0003272210791592836
-0.00011358196111694902,0.0003325925846051075
-9.617295797839697e-05,0.00036808090007923685
-0.0001108894606577033,0.000361895266900437
-0.00011115429349683025,0.00035441508886405675
-0.00011963324151136437,0.00036219605159378796
-0.00010099876904457008,0.0003437445809204216
-0.0001072752598269077,0.0003153779184819173
-0.0001095157249819568,0.0003415681175151214
-0.00010903092071576278,0.0002699292230793889
-0.0001116408404375503,0.00024869556752569577
-7.031366061979382e-05,0.00021667290558774097
-8.328417197722547e-05,0.0001402212864714183
-7.489126030963744e-05,7.765995804312808e-05
-7.761833465363673e-05,-1.1279769329642289e-06
-9.352697195435406e-05,-4.662989173133059e-05
-8.823673872643103e-05,-6.449564005125634e-05
-9.047783005273195e-05,-0.00010652139535515271
-0.00011032360593594615,-0.00013619993969693576
-9.621529994450305e-05,-0.00014997768159685868
-0.00010939700098762033,-0.0001645011435017957
-9.59143718580884e-05,-0.00017275027563283754
-7.722213545600615e-05,-0.0001568897507179319
-8.084151240461659e-05,-0.00017814742596390513
-7.592915583694259e-05,-0.00017948724085934995
-6.09655674943051e-05,-0.00019074910217441515
-7.078944336922731e-05,-0.00021553514818422267
-6.281700025754083e-05,-0.00020672589092836317
-3.525833903575393e-05,-0.0001996211452118015
-4.885002142006255e-05,-0.00021673060650484534
-5.138631285735212e-05,-0.0002235792434992808
-2.926506713216318e-05,-0.00020987837847047787
-4.0950989579345435e-05,-0.00021989584411684793
-1.7749212501702577e-05,-0.00020722966433488644
-4.293139509741679e-05,-0.00022653712409127167
-1.985600368529518e-05,-0.0002088125582844458
-2.8574677925367045e-05,-0.0002199867427465989
-3.870315741795442e-05,-0.00022367984539293007
-3.700688985124286e-05,-0.00022344276075859077
-2.9132373377198044e-05,-0.0002064384786584963
-5.4406482189160244e-05,-0.0002107362959850261
-4.317027854014507e-05,-0.00022268370400154813
-3.4920379804361035e-05,-0.00022204384907364958
-8.25798455795433e-05,-0.00024273527308686448
-5.262400863255089e-05,-0.0002126666084196677
-3.7674040683021675e-05,-0.00021184355610527226
-4.9584295095085166e-05,-0.0002231558838783288
-2.5916221752086936e-05,-0.00019562504238977672
-2.807217782723249e-05,-0.0001934087553570665
-5.846958308242877e-06,-0.0001623695856429901
-2.1428063073393675e-05,-0.00017663406984644225
1.3946276959737221e-06,-0.00015954703200752582
4.170327037998572e-06,-0.00014843940726360356
-1.1067453920247168e-05,-0.00017895189973496633
7.642288270836008e-06,-0.00015896027849566756
1.0037088392597443e-05,-0.0001617956726537907
8.922196956020576e-06,-0.00015494717289154955
3.914869074872885e-05,-0.00013317109496623994
3.670026045609731e-05,-0.00012272694675532242
4.628972142643011e-05,-0.0001229948172706236
4.8398335389198774e-05,-0.00011445971967785465
6.252668832073069e-05,-9.256430870372489e-05
5.4605064277233414e-05,-0.00011524213096866371
6.503779476023796e-05,-0.0001070772796578335
3.9896726906324174e-05,-0.0001260258711425283
6.83922025491413e-05,-0.00010924166240510529
5.4076115521596096e-05,-0.00011205686131191343
6.781478561647767e-05,-0.00010533831592008621
7.954948552403385e-05,-9.038963882972255e-05
8.386577608242639e-05,-7.889585113756705e-05
7.34764239567065e-05,-0.00010548372263435906
6.65058128976647e-05,-0.00010253286777164945
7.800561535596433e-05,-9.637678935175026e-05
8.707130635147771e-05,-9.249315685421952e-05
8.425823646178774e-05,-0.00010343419855434664
8.144105292836415e-05,-9.983815532671717e-05
8.091839015818954e-05,-0.00010584498869799106
8.476128230821245e-05,-8.971241663021965e-05
8.145303143020949e-05,-8.391684010971454e-05
0.00010726702491736707,-5.7830847021819e-05
7.80062587983549e-05,-7.761192514170955e-05
8.14307145059552e-05,-7.350520438279448e-05
8.580558781345184e-05,-7.254861920774759e-05
0.00010955743972899083,-5.2554838868932345e-05
7.505114406285972e-05,-8.584601707588711e-05
0.00010732645081106466,-4.999186640959478e-05
8.758168021811941e-05,-5.3423158172333954e-05
0.0001171988471101558,-1.152581222578983e-05
9.976237537309198e-05,-1.8238889737523224e-05
8.057705055420898e-05,-2.1483794351361758e-05
9.55610386777959e-05,7.594888803653029e-06
0.00010559873583921087,1.906895487715596e-05
9.873814039457632e-05,1.660736868964759e-05
8.235061932201131e-05,7.89047327769356e-06
9.486431259810284e-05,2.7834688367074074e-05
9.210354095030214e-05,2.8554061282866133e-05
0.00010445611805742957,4.2554220666553294e-05
9.50613816286298e-05,4.229305652384195e-05
9.51863570843586e-05,3.920150447433153e-05
8.611339455826652e-05,3.9042648415285146e-05
8.580879653278327e-05,3.25484413868079e-05
6.921887481812746e-05,2.3475311365970247e-05
8.249911761976764e-05,3.191068666096235e-05
8.22048059012488e-05,4.2260504090892e-05
9.181501604901749e-05,4.785855077481867e-05
9.86380362826498e-05,6.404357578593512e-05
8.283465134172228e-05,5.13550180730247e-05
7.608863100897766e-05,4.473249889613289e-05
8.20766799774242e-05,5.067542964840065e-05
6.953766566982488e-05,3.8432152860057634e-05
6.577461567471988e-05,3.090605543410851e-05
4.098385803926664e-05,1.8456223087387333e-05
4.59288544821276e-05,1.7609120950852802e-05
5.3699985160384276e-05,3.37946152303107e-05
6.146685712250903e-05,4.8586079461522254e-05
6.71970881581809e-05,5.912670439169455e-05
5.529660919456272e-05,5.225405949722617e-05
5.118370900492643e-05,4.65977796745627e-05
4.641536723604101e-05,4.4413784296569275e-05
3.7505200236924685e-05,3.0191684440056453e-05
3.1841491239833014e-05,2.5121270374342163e-05
2.4129362264027223e-05,1.310186444979432e-05
3.134356664512315e-05,1.3196995074396122e-05
2.8475789682501506e-05,7.703751838685312e-06
3.455794543676902e-05,2.041543445094184e-05
4.429042595673862e-05,2.931873203715287e-05
4.499358526964333e-05,3.1778503688274635e-05
4.848676421574408e-05,4.129683505038341e-05
4.5394527947112195e-05,3.836473312464339e-05
4.355993693406837e-05,4.326830693436995e-05
4.922781687692124e-05,3.4912290252680046e-05
3.775245448666243e-05,2.477452909130637e-05
3.697982862770438e-05,2.683992323150573e-05
3.232292192384995e-05,2.5803405811306895e-05
3.0364280825202213e-05,2.3441356760710612e-05
4.4397451119345806e-05,3.720485207241314e-05
4.446737060328886e-05,4.086227650898432e-05
4.78355497030815e-05,5.0526030619584475e-05
4.701374385864618e-05,4.6674029978318704e-05
4.227963535949322e-05,4.038721960918284e-05
3.9548795224160605e-05,3.699115280346879e-05
4.1280454288226026e-05,3.466974214807667e-05
4.2240398755960653e-05,3.259551824670625e-05
5.3345198016553944e-05,4.42924711549864e-05
4.447556486672439e-05,2.9032135419504927e-05
4.615254213300237e-05,2.6358957326327536e-05
3.061981600746902e-05,6.287666610937289e-06
4.0494235907141575e-05,1.9497457581225233e-05
5.5117862381484875e-05,1.1944620120168987e-05
3.646534817281422e-05,-6.467757185654287e-06
5.352791455705479e-05,9.727542370095149e-06
6.727590551060778e-05,1.2286775613617063e-05
7.550425007415588e-05,2.5338682219684025e-05
7.347694552048112e-05,2.276397393416942e-05
7.26874167514537e-05,1.0558001225002782e-05
6.704052971007678e-05,3.908925446169618e-06
5.6238495700566836e-05,-9.856470370670133e-06
6.922308544719625e-05,9.922336455538294e-08
5.018163561691388e-05,-2.6274523674342872e-05
5.4590992687100236e-05,-2.3646728929872073e-05
5.09920745187545e-05,-3.058785317357496e-05
5.361721709086453e-05,-2.0517827260888403e-05
5.69051700321962e-05,-1.6807270922304265e-05
7.242304939368847e-05,1.6509470084404938e-06
6.853709730718767e-05,5.716394945480164e-06
7.957177646131655e-05,1.5338635560459297e-05
7.407491371477924e-05,7.777962391787582e-06
6.747897252221526e-05,1.7358803610678022e-06
6.753858750003616e-05,3.17957878006104e-08
6.467993233595979e-05,2.436493808070444e-06
6.362834244722025e-05,-3.3410298361577786e-06
6.0435781783359e-05,-1.7232727670708004e-06
6.002338486771514e-05,-5.580626992810684e-07
5.894854868141672e-05,4.400215354444089e-06
6.412013911303185e-05,5.976515132037019e-06
6.10482350764873e-05,1.1762200395204295e-05
6.327757754933398e-05,1.5585616624331234e-05
6.691975231679752e-05,1.812897517159538e-05
6.550103393777815e-05,1.7754250722365436e-05
5.707544455821305e-05,1.3085084846921624e-05
5.309986616867353e-05,2.528615391561182e-06
5.313075579740236e-05,9.493560122592799e-06
5.264453073508251e-05,7.113829701982848e-06
5.0638101825683904e-05,1.0923592546433768e-05
5.497023935480609e-05,8.13783322178005e-06
5.8894310648704476e-05,1.6637504852133897e-05
6.095755709021385e-05,1.5573809822860512e-05
5.559234459107496e-05,1.89206573056157e-05
6.342338057055377e-05,1.622516827163759e-05
5.2188566727366115e-05,1.298665201108683e-05
5.6790392985627645e-05,1.5085859848213449e-05
4.893570059544607e-05,1.5643222014509186e-05
5.0593093745281714e-05,1.3213202331904807e-05
4.336748900011877e-05,1.2708118313183926e-05
4.424065278517981e-05,1.2633111747382807e-05
4.0697217452264955e-05,1.6353578182574017e-05
4.306206159475882e-05,1.4854000736303954e-05
5.103671864525079e-05,2.6602546010243617e-05
5.167963961703901e-05,2.7283130164081478e-05
4.375998584421377e-05,2.3958931356062548e-05
4.047872034991318e-05,1.8258651071215397e-05
4.638286199197267e-05,2.540074201230638e-05
3.641561827890034e-05,1.5591819718046323e-05
2.7498091255733354e-05,1.6808001782853896e-05
4.2003545977395e-05,2.270132849693654e-05
4.618443429649939e-05,3.6409121689987205e-05
4.765976051904198e-05,4.120448324765232e-05
4.349917157225561e-05,3.325908639396701e-05
3.911346614282084e-05,3.2403529982669283e-05
3.786432879534087e-05,3.3149266803577485e-05
3.3528916981399776e-05,2.2572031599845682e-05
2.9624379087107326e-05,1.9703082394368053e-05
5.605957242424546e-05,3.4096124064582724e-05
4.3237500201855386e-05,2.9572241154438043e-05
2.9404158297669188e-05,6.7164645064065764e-06
3.477272760171596e-05,1.3840833324805961e-05
3.744480395934458e-05,1.5401699199555683e-05
4.150561031491917e-05,2.2273111668943988e-05
3.847689898581189e-05,7.629551625189846e-06
3.3128511356070814e-05,1.3064703141568335e-05
2.267260632794272e-05,-2.1982721320904084e-06
2.0605217596532518e-05,1.908407398586262e-06
2.550145669841898e-05,8.420585691883982e-06
2.9310651720408362e-05,1.4027868579718208e-05
3.567575737488641e-05,1.7986788378546918e-05
3.636949417446718e-05,2.745305559296323e-05
3.082388923297294e-05,1.6374834523042185e-05
3.143345331362752e-05,2.0987198410482597e-05
3.1593609351251736e-05,1.8399399293130462e-05
3.083043421138771e-05,2.324361466880772e-05
2.8912306855948163e-05,1.636901506589133e-05
2.9454454604235298e-05,1.4412497232242106e-05
3.041650358764222e-05,1.2201649059849408e-05
3.001336224160182e-05,1.5691142558434908e-05
3.6595695940174444e-05,2.4135288993886586e-05
3.322472476284936e-05,2.6153353715525032e-05
3.251167523656865e-05,1.778095253375174e-05
3.0403550535207534e-05,1.8200095562347313e-05
3.603258483164224e-05,1.54538086255455e-05
3.2472043567660984e-05,8.76526098828743e-06
3.0310114641799695e-05,5.15010151888265e-07
2.7399785233703292e-05,1.5370257820299242e-06
3.022432185990796e-05,7.217103600382174e-06
2.7483870721773645e-05,1.5996037983016232e-05
3.401718896883058e-05,2.1736596176805284e-05
3.149653897289122e-05,2.7799627092347063e-05
2.174116092750938e-05,2.0541143347927518e-05
3.157857118207733e-05,3.170815312734969e-05
3.303319101864621e-05,2.1319121659828147e-05
3.1778561292524266e-05,2.3677864328712827e-05
3.587713295558225e-05,2.526937386364194e-05
4.0711492580705456e-05,3.0507298329535342e-05
4.045274702489974e-05,3.101970203914195e-05
3.3346341914540445e-05,3.144307266070249e-05
3.1644093387767e-05,3.422383397101436e-05
3.3103768738016804e-05,4.2089178167983896e-05
3.207418317702476e-05,4.476174403051307e-05
3.2536665135180984e-05,4.765973216338928e-05
3.8179550291062346e-05,4.797415549557106e-05
3.78331323112446e-05,4.6790324167060224e-05
4.441012937220801e-05,4.47546976448928e-05
3.731806568946469e-05,4.175120827081429e-05
4.084088786260074e-05,4.046747835750387e-05
3.8443586992971094e-05,4.8115911173984716e-05
3.898704588730256e-05,5.40788249988442e-05
3.2951891490836214e-05,5.250042760690046e-05
3.057600385191274e-05,5.019800920699786e-05
2.436101190149803e-05,5.433475610574194e-05
2.3223340934676484e-05,4.8118144662227505e-05
1.904408702439886e-05,5.836591117670526e-05
2.7503797007457208e-05,6.393285889023454e-05
1.9759065408774766e-05,7.058964460221369e-05
3.0014621653766598e-05,6.872577332970919e-05
2.9322825633075157e-05,6.358302413439849e-05
3.090312915091084e-05,5.8181499910220754e-05
2.6379853926033307e-05,4.3440424007853246e-05
4.1351428110630365e-05,4.9349687873780734e-05
5.039793339015572e-05,2.9239515851523006e-05
4.759847104362541e-05,2.159751800276352e-06
6.595027101042439e-05,1.4226333058039088e-06
5.881345272079847e-05,-3.458834191403157e-05
7.096035925431369e-05,-3.374344367933327e-05
8.08382703620168e-05,-4.25752652494207e-05
8.262020609666125e-05,-4.424729660311866e-05
9.019248040610608e-05,-4.8548311173662185e-05
9.189545519003378e-05,-4.5599244705406466e-05
8.554662758565044e-05,-5.6091146306065416e-05
7.693269126024738e-05,-5.33742660870208e-05
7.656214785644032e-05,-5.161558649532924e-05
7.398280788074155e-05,-4.692006315467263e-05
7.323845853974097e-05,-4.399202222866712e-05
7.369974474406659e-05,-3.696560367709221e-05
7.325450207017877e-05,-4.042830100473646e-05
7.275160558258871e-05,-3.0034885354656732e-05
7.603926933054853e-05,-2.5075408936169554e-05
6.950871934121629e-05,-2.9071571028687754e-05
5.89095424233901e-05,-3.9434247017510866e-05
6.306501038912926e-05,-3.0435239829688487e-05
6.010675326728806e-05,-2.5773845815667053e-05
6.639692208940923e-05,-1.3295016402592918e-05
5.5742491538768085e-05,-2.053700229257611e-05
5.695652972159505e-05,-1.3506412961467044e-05
5.690912543069723e-05,-1.6769172054719367e-05
6.276202604765234e-05,-4.274973468964736e-06
5.332399245612424e-05,-1.3985668459172507e-05
5.537248176343411e-05,-4.686701850785942e-06
5.061686504053794e-05,-5.234839888313473e-06
5.513877215261744e-05,7.415623892432936e-06
5.0172136541790576e-05,4.403532830091067e-06
5.3303268840441405e-05,2.0414290079496544e-05
5.1810484933689504e-05,1.7097872688150106e-05
5.926574681340532e-05,2.4597474441924758e-05
5.916058411531779e-05,2.3076138052504545e-05
6.20763344010758e-05,3.2124085170637876e-05
5.1585982405704876e-05,1.55319685169327e-05
6.68781365562586e-05,3.27370643011762e-05
6.220024260948133e-05,2.608048342004848e-05
5.573560588460081e-05,1.865810748409264e-05
6.242609411551512e-05,1.888400150540707e-05
6.922800566868322e-05,2.5498852883496692e-05
6.324469978064475e-05,1.4130501230526946e-05
7.273764712384119e-05,2.0684092152179358e-05
6.917118648455696e-05,1.3742954135447984e-05
7.19678177179266e-05,1.9459099703726545e-05
7.150042071360466e-05,1.8292245154759398e-05
6.580490442865944e-05,1.9837275981267194e-05
6.957011065014099e-05,2.0377875247621644e-05
7.622438301226167e-05,2.8508304409081843e-05
7.030499502946839e-05,1.9593265635080362e-05
7.391715968363007e-05,3.0231270700349386e-05
7.314299556888235e-05,2.3411507869685207e-05
7.323611611399644e-05,2.7811643847400266e-05
7.141145125842433e-05,2.0907624500001406e-05
7.473244924299521e-05,2.9720985327457287e-05
7.13021251484201e-05,1.6723832044978156e-05
7.185852566054422e-05,2.381379312748362e-05
7.542854649312778e-05,2.1395823589178516e-05
8.416416645785418e-05,3.303292736044034e-05
8.033054987486406e-05,2.3784614994134622e-05
8.372037862644632e-05,3.301373045134607e-05
8.063048218829005e-05,2.561139141782778e-05
7.364641125734982e-05,2.7162898592305368e-05
7.568309686215744e-05,2.424828335102291e-05
6.933713459006462e-05,2.5548889194138317e-05
7.255412384830571e-05,2.7760375501832338e-05
7.293561170716393e-05,2.8289299111057408e-05
6.933881606428052e-05,2.800756152905829e-05
7.949880597065285e-05,3.9727917611654806e-05
7.48089558213402e-05,2.35179898049601e-05
7.978321906160739e-05,2.8748715886965197e-05
7.742385117922535e-05,2.507602392262785e-05
8.06754860289798e-05,3.160884301625447e-05
7.435363311045342e-05,1.7488318526825615e-05
7.457224759173275e-05,2.2983507404732898e-05
8.125043972060755e-05,2.2550529135163046e-05
8.203465263822308e-05,3.0844194382870685e-05
8.797478617549167e-05,3.2609713122625335e-05
8.272384812416363e-05,2.5739850586968137e-05
7.972292657571295e-05,1.2797665763964198e-05
9.147736271830124e-05,2.7360820684215934e-05
8.1230778842074e-05,8.01515826257675e-06
8.73859308282496e-05,1.956205405158951e-05
9.446670350208887e-05,1.8528039330888016e-05
8.991268673009895e-05,1.750790000449552e-05
8.758160599297717e-05,1.2257612368728801e-05
8.723648367202943e-05,2.2491734186788193e-05
8.909162807927224e-05,1.6284647845686214e-05
8.002828846015733e-05,9.514513344530522e-06
8.70264885238774e-05,1.0400059048010817e-05
8.707874859152476e-05,1.557224899114166e-05
9.689049846010541e-05,1.703788063846548e-05
9.040469714871602e-05,1.8828621714514577e-05
0.00010318037136634955,2.1328642500721612e-05
9.645794425257098e-05,1.3305736330957555e-05
9.405243227785652e-05,8.862586215076587e-06
0.00010192590480730946,1.6362954792344265e-05
9.393198990012969e-05,-1.2068477519730756e-06
9.545608027041323e-05,1.2213402565086945e-06
9.836761790428793e-05,-8.046589734315705e-06
0.00010033668774606162,-3.695901668445168e-06
0.00010454368406876579,-6.141874876486192e-06
0.00011583941175862642,6.859426926909417e-06
0.00011150712829757438,-4.603592127163554e-06
0.00010477635972875339,-4.021492316263524e-06
0.00011003499749989938,-6.247701646905352e-06
9.95935877226928e-05,-1.0378758593770297e-05
0.00010488174775943921,-1.1642990995678838e-05
8.625913633561557e-05,-2.995517438761504e-05
9.495565598708499e-05,-2.3642912646778322e-05
0.00010360662644639082,-1.0072694338984325e-05
0.00010325723947873837,-1.6011720554593744e-05
0.00010789154980200628,-5.25928848046756e-07
0.00011714902229295572,7.116709485817921e-07
0.00010808300481520547,2.7598174118518425e-07
0.00010848523555856018,-1.8981719850290333e-06
0.00010201804225227442,-4.247510189783425e-06
9.544880415956423e-05,-1.7235558109386336e-05
8.94965435923356e-05,-1.742658642057346e-05
8.629883160595559e-05,-2.7171100243107243e-05
8.399051614115487e-05,-2.6470787651121696e-05
8.778246784143254e-05,-2.7775172713020485e-05
8.808952914792741e-05,-2.079647833133638e-05
0.00010807790275951021,1.4123375196929886e-06
0.00011338291609336522,3.571563742646707e-06
0.00010123715402991532,-9.418574458126493e-06
0.00010247406555049847,-1.2948982947396048e-05
8.995003793159424e-05,-3.146241083743304e-05
8.655538699076617e-05,-3.625087763760926e-05
9.364137907311916e-05,-2.892096240331176e-05
9.5346258324594e-05,-3.622690586901754e-05
8.820857611995307e-05,-5.151707051434345e-05
0.00010194497624816221,-3.801000273600125e-05
0.00011243438473325653,-3.6952806767773004e-05
0.00011648918667481681,-3.153065772813658e-05
0.00010752663893337469,-4.5153000852124326e-05
0.00011274510610433069,-4.129679123220347e-05
0.00011402629684615526,-3.834053306997618e-05
0.00010850972243277884,-4.937794813928111e-05
9.89827632269436e-05,-5.35385239550534e-05
0.00010058937278604805,-4.253005093999414e-05
9.64761287663277e-05,-4.061136497454051e-05
0.00011585803621257766,-1.5824220821091748e-05
0.00010064249678522447,-2.240890241967253e-05
0.00011028631324002588,1.189283428659273e-06
0.00010224512660297769,-5.273367742994146e-08
0.00012394681342742378,1.2795091087286346e-05
0.00010022724061049307,-9.238693133619918e-06
0.00010558633124085446,3.7453231333502823e-06
0.00010389650165001922,-1.1071329223576157e-05
0.00010381412410823967,-1.8712211731302474e-06
0.00010172265273021103,-1.3316281656730929e-05
0.00010692210426456658,-7.938983424344936e-06
0.00012491658747451165,1.6056533270472902e-05
0.00010446955694983573,-1.5413425027021058e-05
9.55088578930071e-05,-2.1811376706457645e-05
0.00010747895728773505,-5.047376946602791e-06
0.0001065163050296732,-1.548343544705509e-05
0.00010533745912760356,-1.3464983840804935e-05
0.00010595154896512729,-1.7275885039497872e-05
0.00011219526584001339,-1.0043851043593665e-05
0.000114556731860349,-1.736117247306187e-05
0.00011748660311017753,-9.73839611817248e-06
0.0001079578089944951,-1.8174087151029837e-05
9.851758477633871e-05,-3.063407674668895e-05
8.971498985396773e-05,-4.1641958444346285e-05
9.834338215119016e-05,-2.497938018512259e-05
9.319029502152604e-05,-3.948369369923849e-05
9.861818166805207e-05,-2.809816333002253e-05
9.697002285190699e-05,-1.8890926579314212e-05
0.00011667010127973458,3.78703926633341e-06
9.871620709430004e-05,-1.3471165293482874e-05
9.91494868506257e-05,-7.567878664127064e-06
9.247165489729021e-05,-1.4606354657200501e-05
8.101002976678608e-05,-2.4866849619328347e-05
6.567903629907932e-05,-4.601098188256892e-05
8.195788940685574e-05,-2.2941224584900505e-05
7.262343650121351e-05,-3.306791131910483e-05
8.996667680100962e-05,-6.265797896749157e-06
9.29020909473705e-05,-7.754675980119037e-07
9.620530748440425e-05,6.788971820955687e-06
9.174878792857505e-05,-2.8388698248706455e-06
8.089926456212732e-05,-3.371580480393703e-06
7.459964448560226e-05,-1.1060443866108332e-05
7.345175952572347e-05,-1.5405340728283023e-05
5.712754135360722e-05,-2.847169478897475e-05
6.230333040375046e-05,-2.4633729091756613e-05
4.437587969830193e-05,-4.4736195711386916e-05
4.056473199892401e-05,-4.631463760273282e-05
5.9664511478870376e-05,-3.2626651389220194e-05
5.4949715729233745e-05,-2.546958151290377e-05
6.473396119374571e-05,-1.4630478945597672e-05
5.915850483042178e-05,-1.2813378569630494e-05
6.011140179356728e-05,-1.615248128409237e-05
6.539012726431966e-05,-1.2998215337796329e-05
4.881343738321633e-05,-3.160937739988117e-05
6.0714941020480887e-05,-1.6794540367652915e-05
4.474220642422333e-05,-3.42092938821264e-05
5.602839033789971e-05,-2.6045110720503755e-05
5.767188723413995e-05,-2.4652251381160425e-05
6.347592254295053e-05,-6.9823233400315516e-06
7.427330658363981e-05,-2.8377217903431115e-06
6.853085055537828e-05,6.717548089608019e-07
8.832478246733121e-05,1.5169454412159693e-05
7.089471209139655e-05,9.51975147909356e-06
6.159635464774512e-05,-3.628276685545268e-06
7.162645406221398e-05,1.8034321759273414e-05
6.730455886462704e-05,6.9244928775287246e-06
7.324954713575298e-05,2.0288687388179447e-05
5.933267185415394e-05,-1.9431997889213215e-06
6.085495858930399e-05,3.955005695239148e-06
5.06996248421227e-05,-1.2070914921677798e-05
5.8710121411303224e-05,3.971940535874206e-06
6.358943525889336e-05,6.9143730748947105e-06
5.5365848591718944e-05,1.0321020131313361e-05
6.306025681367254e-05,1.4790306468365053e-05
5.8966128423842155e-05,1.7595871919853873e-05
6.0864936995418285e-05,1.8533813910356708e-05
6.458495394450357e-05,2.613875973687936e-05
5.0646903363986686e-05,2.9088061029457757e-06
3.6839691631126974e-05,7.405475382584366e-07
4.472972018898612e-05,2.142845944421829e-06
5.519227403177395e-05,2.300798533729742e-05
5.830561595268887e-05,2.163828125912519e-05
6.535779743984372e-05,4.470410332339708e-05
6.63905983935924e-05,4.13589896715621e-05
4.8790035668841096e-05,3.588462998938581e-05
5.82609633589921e-05,4.242016307000765e-05
4.547006753685368e-05,3.661974480515318e-05
2.8965352539154117e-05,1.3861237795797766e-05
2.9298469092382932e-05,2.2821310521690637e-05
3.27621135230256e-05,2.805411109506922e-05
3.08584370277689e-05,3.088875659108925e-05
2.870860443288603e-05,2.805336928394543e-05
4.737259389265422e-05,5.610488170934864e-05
3.9346675415994386e-05,3.908244135605984e-05
5.148305102548564e-05,6.008550775071856e-05
4.265351508622292e-05,4.0379489410031084e-05
5.066168755691584e-05,5.167112319109953e-05
3.784083300639385e-05,2.4957431256842176e-05
3.647402542755084e-05,3.3146896979191224e-05
3.3064446218641525e-05,1.8219300150395857e-05
3.023513697225119e-05,2.3724145105950454e-05
3.7341146694237256e-05,2.2014120372020138e-05
4.996231564765423e-05,3.764402793702467e-05
5.251319041774916e-05,3.992128473021593e-05
5.255063313738084e-05,4.5091668573445046e-05
4.4156895064504795e-05,3.244181762602663e-05
5.4187042853862374e-05,4.542361250493005e-05
3.864921993784532e-05,2.0102111882730645e-05
5.085404572976563e-05,2.8857466051318074e-05
2.94804188602015e-05,8.571062354181127e-06
4.7017051162731706e-05,2.372051806754377e-05
3.881555485709486e-05,1.3986064606391795e-05
6.670472148038744e-05,4.458056560491927e-05
5.7765495198082064e-05,3.525722257642371e-05
6.862476651537647e-05,4.908538711173094e-05
6.095411123636106e-05,2.9742369307288226e-05
6.574525300846329e-05,4.4415950746170134e-05
5.693796531948309e-05,2.241632530549275e-05
5.9764669118134603e-05,3.503963518112774e-05
5.365965632050111e-05,2.4187430358449747e-05
6.24792414595573e-05,4.070525628769908e-05
6.506249226328106e-05,3.294679628324549e-05
6.0450265101770335e-05,3.410785006791048e-05
6.402134890110717e-05,3.79117524649992e-05
6.277605471786628e-05,3.7715507075877544e-05
5.569232352370919e-05,2.277347340947977e-05
5.479325625993274e-05,2.501593857711092e-05
4.531502343167464e-05,1.307824330191771e-05
4.407034692432552e-05,1.951534890769128e-05
3.8812106440010696e-05,4.630009538349629e-06
4.336437907483203e-05,2.0394985020750385e-05
4.1516478679221444e-05,9.021808363664217e-06
5.0661336250527295e-05,2.0435888521312505e-05
4.726076098974056e-05,1.4175433205426906e-05
4.80205368742118e-05,1.282944278857843e-05
4.789042318286109e-05,1.8237563372853672e-06
5.0282858491109145e-05,7.40599028918139e-06
5.5972891429245306e-05,5.259620683241151e-06
5.4753950172129924e-05,8.035251955676468e-06
5.6991968178676665e-05,2.8675268537365095e-06
6.393411039006501e-05,1.9134512014437003e-05
6.405730043244849e-05,1.3843138032962259e-05
5.336645392298997e-05,6.49802268010322e-06
5.0221007412033477e-05,1.7955820373904116e-07
4.945063710856879e-05,4.5865247683596994e-06
3.5428192867536524e-05,-1.261973784704157e-05
3.517495961118426e-05,-4.1358167166775894e-06
3.506068063562542e-05,-1.362697467526443e-05
3.3532858019259704e-05,-1.1806230528478852e-06
3.9063453017238694e-05,-5.871924596932995e-07
4.486126123348707e-05,1.1866239001099545e-05
4.562550326113481e-05,7.725910936560803e-06
4.330981615009892e-05,1.1204082724511531e-05
3.0421206273505508e-05,-8.448094456539385e-06
3.5246938064566916e-05,1.9055521133947845e-06
2.920092601251255e-05,-1.395603774831209e-05
2.5954683716801558e-05,-1.2622587898545964e-05
2.730661855760311e-05,-1.5594682577964382e-05
3.07690492192474e-05,-7.3176541540066905e-06
3.090192713618531e-05,-9.329279161714497e-06
4.092784623583589e-05,6.82687110804998e-06
5.088810502743376e-05,1.0132570508712253e-05
4.976413945231861e-05,1.9951988281813464e-05
5.061439961637447e-05,1.55070192762764e-05
4.4459957382669794e-05,1.5709739665849892e-05
4.142072097236156e-05,4.748747069690952e-06
3.793096761637759e-05,3.6223223646023046e-06
3.529152587458889e-05,-4.387314568116526e-06
3.470718370585108e-05,-1.3472573688438453e-06
4.220097388742075e-05,6.155997094448368e-07
4.079589510016879e-05,8.82803953374504e-06
4.598474632383584e-05,6.397994965273443e-06
3.8190595334761766e-05,8.489544992717448e-06
4.292767979585641e-05,5.820655483807197e-06
4.2711619818700466e-05,1.259105023435795e-05
4.0805006042051286e-05,3.933330859016193e-07
3.049982124317427e-05,1.2946397811465776e-06
4.0057932803237463e-05,7.546047155359904e-06
4.312148309174528e-05,1.8055308315087496e-05
4.2194316947635444e-05,1.799183013440732e-05
4.303933571779104e-05,2.723398433713842e-05
3.663876368784613e-05,1.6859858511584098e-05
3.767110858976697e-05,2.3343581673373926e-05
3.679573758497971e-05,2.0435348191508825e-05
4.214378631325061e-05,2.9479398630677197e-05
4.1664968729422945e-05,2.3635713107540713e-05
3.522016312958903e-05,2.5399797702746972e-05
3.7115308325372584e-05,1.8779722283897657e-05
3.16529595402165e-05,1.8328915923774005e-05
3.0395787948966853e-05,1.555843214022548e-05
3.742190205640422e-05,2.9781216815956405e-05
3.9213288444386864e-05,2.8401044337524827e-05
4.630382218604771e-05,4.146643566468041e-05
4.732647783385493e-05,3.351111494368099e-05
4.8946128881325664e-05,3.77576952079712e-05
4.423966432732089e-05,2.8224427467461032e-05
4.360663444020809e-05,3.686053343230458e-05
3.9247122279557755e-05,2.032511233014489e-05
4.052623744158602e-05,2.3872895749597656e-05
3.213958017699126e-05,1.0645296255702332e-05
3.843838998390736e-05,2.3099610541970046e-05
4.389293112132946e-05,2.07168000356345e-05
4.68646530438654e-05,3.873025458852345e-05
5.114455985276532e-05,4.064448378616135e-05
4.64525614427047e-05,4.196050294547068e-05
4.897397986468158e-05,4.016063178690328e-05
4.381913398163061e-05,4.468976345803558e-05
4.193692558671631e-05,3.220331267038094e-05
3.741425198784063e-05,3.3954514695158097e-05
2.8022738375548543e-05,1.565244560621914e-05
2.9044195801686122e-05,2.6068120204044352e-05
2.999561235409974e-05,1.9747255130544342e-05
3.3142667570060045e-05,3.3842207653574354e-05
4.131555633299647e-05,3.848489496963863e-05
4.3175078120505134e-05,4.957984584986164e-05
4.662143064234159e-05,4.6907843789771476e-05
4.8178733470459545e-05,5.580317544963629e-05
4.706886882581374e-05,4.575431783156746e-05
4.0729664458792874e-05,4.570396148803034e-05
4.3923235985351255e-05,3.735431575402016e-05
3.448700021860875e-05,3.0049829888599985e-05
4.150346700586277e-05,2.47317812660852e-05
4.740896211400769e-05,3.670184934670623e-05
5.390369503606008e-05,3.208721404611686e-05
5.709802287567226e-05,4.576170134697175e-05
5.7034051638255076e-05,3.0211807025500147e-05
6.394752585019736e-05,4.224650804240456e-05
5.979876767925935e-05,2.149899830774333e-05
5.904586720915762e-05,2.466513931843401e-05
6.330113393815857e-05,1.7374565451650025e-05
6.330853761832823e-05,1.9131932451461784e-05
5.015609822708391e-05,-6.136604652132845e-06
5.2248899126602624e-05,2.5422009755530666e-06
5.0931623814432616e-05,-4.552630543197876e-06
5.812742279401791e-05,1.212999726727897e-05
5.387818947800513e-05,5.4148635117554805e-06
6.244690208705102e-05,1.8280649233848886e-05
6.643481950941619e-05,2.3510317326329473e-05
6.446570169577382e-05,3.0869431808667706e-05
4.937204044107059e-05,9.10574871665001e-06
5.8895240332786486e-05,1.8958891506582797e-05
4.6729071164565254e-05,4.899367381205568e-06
5.3400195265158945e-05,1.5847105496939915e-05
4.530146854807687e-05,-2.855709601432264e-06
4.0487510185880414e-05,-1.4609217914473802e-06
3.9933765348439584e-05,-1.3004212473332153e-05
4.752295216437698e-05,3.417456070252531e-06
5.3923189173181926e-05,4.566983390709326e-06
5.2995218410639275e-05,1.0288359030403171e-05
5.2049183263596135e-05,2.1491799966457237e-06
5.4451354268448884e-05,1.76202513008744e-05
4.7315635016989835e-05,-8.317514768124179e-07
4.7887102856466383e-05,6.432573265389698e-06
4.838993568471977e-05,-2.687951602491892e-06
3.7898453231105805e-05,-5.903553307038874e-06
3.1569840624311705e-05,-2.4468059375785352e-05
3.306680520117915e-05,-1.551810018938334e-05
3.399819131979667e-05,-2.28331769452001e-05
4.8506162359296166e-05,-1.8795155639473676e-06
4.910760734697628e-05,-3.9221417469997277e-07
5.901545288360169e-05,1.2759785588739274e-05
5.756402531584024e-05,4.464610677875355e-06
5.675485446192263e-05,9.408746307409672e-06
5.025889144308408e-05,-6.920532335273565e-06
3.536581970854588e-05,-1.3927854057368334e-05
2.8825776325184113e-05,-3.1156254253245686e-05
2.6734720417340212e-05,-2.667153073448241e-05
3.260784349934064e-05,-2.663350139135367e-05
3.5419788655086137e-05,-2.1633046630447904e-05
4.282131143715742e-05,-1.1299950126731992e-05
6.325615185344297e-05,1.2519391850969094e-05
6.342239919076867e-05,5.391863346595685e-06
6.0157754918907314e-05,1.2233973873699072e-05
5.398762192921185e-05,-3.3741065564197934e-06
5.1101135148034464e-05,-7.006789718006842e-07
3.739899905682882e-05,-1.9799052622561065e-05
3.602065644526976e-05,-1.8658707763967086e-05
3.3407676039345354e-05,-2.4882359003089507e-05
3.2274420886482286e-05,-1.988562593459213e-05
3.570716966220612e-05,-1.9996013347965396e-05
4.19887869861796e-05,-8.95352324545347e-06
4.2030159263022626e-05,-1.2989090644504839e-05
5.526814918011256e-05,4.389611771995987e-06
5.1368225174783753e-05,-6.515316965233742e-06
4.6748364960466525e-05,-3.2328287890177084e-06
4.877176022780283e-05,-7.97148752925408e-06
5.2578595522582525e-05,-1.668427589631556e-06
4.9755516574840995e-05,-5.629946372591755e-06
5.0841574013613487e-05,2.944797032298547e-06
5.0411811559996115e-05,-6.742204569841681e-06
4.54080403855702e-05,1.8685511044540574e-06
3.894729044965641e-05,-1.0070583952009073e-05
4.26247328443949e-05,4.25920693123066e-07
4.902139218779403e-05,3.4704644904927294e-06
4.074912426935649e-05,-4.86351279757603e-07
3.4278204600269574e-05,-1.3908737028278606e-05
4.0317533069167875e-05,2.4865922217605328e-06
3.888311336192361e-05,2.242962390140648e-07
4.3546036149628985e-05,1.3228814336051146e-05
3.976748123133543e-05,2.2208609753104797e-06
3.528232098087588e-05,9.273569712809051e-06
3.1434674722751396e-05,-2.204399007881931e-06
2.8997105776919813e-05,1.2588093859424237e-06
2.7246757617725892e-05,-6.936226806439319e-06
3.419361041166673e-05,9.684070352640831e-06
3.582986604209644e-05,8.038398543608678e-06
4.183613728341416e-05,2.0841035029495315e-05
4.2249519842251725e-05,1.889539702049816e-05
4.005834354240661e-05,2.6063093958193315e-05
4.158003732581743e-05,2.0540821805693222e-05
3.5952028668028255e-05,1.8991317255054924e-05
3.9793939129061873e-05,1.4569431430534055e-05
3.5112250613249925e-05,9.379287436751905e-06
3.1457294197155055e-05,1.914976092526494e-06
3.720831239243984e-05,6.625622942836577e-06
4.1050375463702665e-05,6.425061560186608e-06
4.8007627539975635e-05,1.4998078173276491e-05
4.844978790401549e-05,1.4927914551472503e-05
5.753687862925777e-05,3.471651985131798e-05
4.834157117143714e-05,1.6183207729925784e-05
4.627103304274616e-05,1.983984660161823e-05
4.641196736156098e-05,1.1574004375176844e-05
4.330143269729646e-05,1.2980525621358891e-05
3.611387697132309e-05,-3.093678083159023e-06
3.4727289882081224e-05,-8.487375792373636e-08
2.9388941811606012e-05,-8.072218467638257e-06
3.144268539897776e-05,3.3296342728885923e-06
3.708960908814673e-05,3.118716376919193e-06
3.603385174604129e-05,1.1552929291485186e-05
4.967926574294855e-05,1.6795517252652573e-05
5.349491753759124e-05,2.2669076410468613e-05
5.056278003015658e-05,1.646814053018113e-05
4.7635206064950145e-05,1.1720537154623502e-05
3.3219737656290016e-05,-5.305679234876088e-06
4.0686777143993326e-05,4.864359685046712e-06
1.6908311224859182e-05,-2.5359951144504743e-05
2.4666419039306933e-05,-8.225355524193218e-06
2.3388906559583415e-05,-1.9491935559616607e-05
2.9006513246708934e-05,-4.23855095535577e-07
4.3606428382819224e-05,2.2966644275553e-06
3.915712078806932e-05,1.4695394348968025e-05
4.40915703362416e-05,1.3886423630051354e-05
4.126678278742648e-05,2.3912916203409355e-05
3.401451919072859e-05,1.0542740671223483e-05
2.7300850436573288e-05,1.2627388124777585e-05
2.359147902474155e-05,-7.815781187828444e-07
1.3945137764965822e-05,-5.448460516605779e-06
1.0175068703554064e-05,-1.0419422701146007e-05
9.38580962157447e-06,-6.864517822025673e-06
1.7509435852144396e-05,4.0149495251038745e-06
2.3802364202000477e-05,1.3257930800373837e-05
2.0118065321446073e-05,1.0770300993786571e-05
2.141677687164441e-05,2.0939248821853062e-05
9.43628134323221e-06,7.172936754880901e-06
1.6707187920453474e-05,2.020860100955616e-05
1.1331495229247352e-05,5.784134851439513e-06
9.652693846085269e-06,1.2809881865084914e-05
1.623418709233938e-06,-8.971046008340238e-07
1.6404972561589675e-06,-9.183664485854939e-07
-1.2899780101855007e-07,-3.3725378928435484e-06
7.832771111245409e-06,1.0785234798979827e-05
1.1252735656457508e-05,9.22883369354345e-06
1.426242581990143e-05,2.1924729094822482e-05
1.0018102696802849e-05,1.1049915186271043e-05
1.605741562525585e-05,2.5597954400941476e-05
3.380305891882555e-06,1.368497869464945e-06
1.278489693965953e-06,7.321277878330475e-06
-7.501161951217015e-06,-9.837414472136788e-06
-1.1860879349019964e-05,-5.320996843907235e-06
-1.4106552260994075e-05,-1.371209773397996e-05
-3.6058160778888163e-06,7.735974884412986e-06
8.800616768176959e-07,9.171262018235246e-06
7.70346425063704e-06,2.4470668475315335e-05
1.62566141331935e-05,2.81191813173677e-05
1.1959721685425423e-05,3.161989574124162e-05
2.295606269616005e-08,1.049738749144102e-05
6.775414583936576e-07,2.108834171477579e-05
-7.993489447252226e-06,4.662711490853551e-06
-1.4570761026529281e-05,7.964024510730851e-06
-2.1190975618578437e-05,-1.1354422021720718e-05
-1.4723272491524761e-05,3.764794541306203e-06
-8.670413033832942e-06,1.2331489729238576e-05
-1.6567350335279096e-06,2.288530158012345e-05
6.8781408907519545e-06,2.5466843818309578e-05
7.518652252397312e-07,2.970414226517785e-05
-1.3014433976895214e-06,1.7824611705012426e-05
-7.420264525289262e-06,2.2078588331159033e-05
-6.648844123337348e-06,1.3325031168848966e-05
-7.603192751659382e-06,1.6602710750186158e-05
-1.1211303488787744e-05,3.2548423001614706e-06
-3.487087605107613e-06,2.1106205858476062e-05
-8.278353422652425e-06,7.314203692429999e-07
-6.8994868583585975e-06,1.263981708832157e-05
-1.3355978468794126e-07,4.90811732067097e-06
1.0529786214250964e-06,1.6982767192247784e-05
1.0000130810378629e-06,1.2594963869308842e-05
7.092797325028808e-06,2.4849217633655145e-05
3.609312866062842e-06,1.3456881439401516e-05
9.79508124923326e-06,3.0696912888196526e-05
9.889671261747618e-06,2.330924026182164e-05
1.2983972352905845e-05,3.514454188986836e-05
3.893816367702834e-06,1.2740406336465348e-05
3.010317293427399e-06,2.1420627508984707e-05
-2.744729501911002e-06,4.168850005699287e-06
-9.866461226224068e-06,1.5378923814587004e-06
-7.152383312711316e-06,-8.472334745726973e-06
-1.9901981723622164e-06,8.399765741137215e-06
9.780890151422368e-06,1.543770998031358e-05
1.0489978816972423e-05,2.8891439796531446e-05
1.3034598242427054e-05,2.5469974238416706e-05
1.846985423315033e-05,3.819207662319469e-05
1.0277964578273215e-05,2.866507415791187e-05
9.17983863603748e-06,3.049079581303236e-05
-5.373395318868009e-06,6.801229763469965e-06
-8.667312174938155e-06,1.0356107216662556e-05
-1.1104168008675518e-05,-3.58439659368058e-06
-6.492264883670525e-07,2.0253166059174973e-05
7.816243858885932e-06,2.575904347020679e-05
1.7433751042156886e-05,4.089006808154437e-05
1.7158183790852187e-05,3.5362601451722266e-05
2.409104228010821e-05,4.767984352212255e-05
1.2403152740399269e-05,2.8206534358027083e-05
9.357716870725195e-06,3.0593227578869436e-05
6.569392249275961e-06,1.4811685296418876e-05
4.55214116701888e-06,1.6336392488793152e-05
6.692699640121698e-07,-1.475294837145778e-07
-3.5564614262227174e-06,-1.697533765867609e-07
4.287164978182706e-07,-3.861259457487409e-06
-8.682065580416511e-07,1.7446911479253811e-06
1.114957047790775e-05,5.522633824700476e-06
1.468294749551195e-05,2.084783339422603e-05
1.2164075716383617e-05,1.3119297169376413e-05
1.5123101189159654e-05,2.271025050812229e-05
8.442052308569519e-06,1.131281918654661e-05
1.5114541124212363e-05,2.2009655789502064e-05
8.85144343463204e-06,5.86781538344002e-06
8.854589369410303e-06,1.178283600577336e-05
6.110514579746276e-06,-6.374794961825988e-07
3.403088309018279e-06,8.585889207614277e-06
1.0930345931855934e-05,5.157477818670776e-06
1.0475385355487866e-05,1.8722306127138824e-05
1.77115311353425e-05,1.5328019373407233e-05
1.7193143307649747e-05,2.091934481592246e-05
1.3835780945268538e-05,9.055444238181345e-06
1.5858835058231462e-05,2.0606078609630204e-05
1.782481899257599e-05,1.318112469658335e-05
2.602966651515375e-05,2.5238173932439745e-05
2.24152111280051e-05,1.301238821244888e-05
1.8987658869572158e-05,1.9279725521840203e-05
1.864478342782668e-05,7.998987695442065e-06
1.9781615215720286e-05,1.2791506485482872e-05
2.11195421763505e-05,7.475187408348848e-06
2.5957835904038546e-05,2.4788485798796363e-05
2.2001429177721375e-05,1.487341993028687e-05
3.5149112151178154e-05,3.388753006502143e-05
2.929281905230705e-05,2.7226694569802172e-05
4.0614451191269616e-05,4.752643625287564e-05
2.8108403610331025e-05,2.617030531640968e-05
3.1774400756819966e-05,3.665387304212953e-05
9.00088864170804e-06,2.1163765101880895e-06
8.925334000584999e-06,3.0705458875744495e-06
1.8705257856270588e-05,5.106350180146098e-06
2.793758278559599e-05,2.6962016885492093e-05
3.22867415573536e-05,2.767252623102666e-05
3.1637523250593186e-05,3.833081026586063e-05
3.5258158744343266e-05,3.562781536071908e-05
4.0250429868625785e-05,4.689726254149909e-05
3.7933282059887597e-05,3.288796044382426e-05
3.1954614836563944e-05,3.2138041690589914e-05
2.3896098260644907e-05,1.644027479801009e-05
1.5185029269527619e-05,8.738432944732546e-06
5.5895915717648104e-06,-1.3248495278226342e-05
1.883408509304173e-05,6.634693833137806e-06
1.8115384016792427e-05,-2.25601601567303e-06
2.885715971423283e-05,1.957899383992598e-05
3.2483772510054454e-05,1.5620701946798223e-05
5.1659416632777724e-05,4.826485713132234e-05
4.892064021906118e-05,3.561106497054699e-05
4.955301368066566e-05,4.2203335004707245e-05
2.945126260797507e-05,1.0985461164377447e-05
2.8888926408998473e-05,1.5476562532856077e-05
2.4788607417382187e-05,-2.6532523052433028e-06
1.765725066570585e-05,-1.3198252854043538e-06
1.5388248419694645e-05,-1.2135363704116625e-05
1.550636520374987e-05,-4.468536382624009e-06
2.3812648644857548e-05,2.94688561731847e-07
2.99407912851903e-05,1.8921336565997156e-05
3.595020164113656e-05,1.792704823454173e-05
3.8702000876377573e-05,2.438354248114381e-05
3.105018767685333e-05,8.042906491712687e-06
3.741815166542837e-05,2.1082618134635002e-05
2.2258851420720205e-05,-3.7163201868565795e-06
2.448658356527622e-05,4.0205936581329416e-06
2.130154949120627e-05,-8.599116418753637e-06
2.0833344405821924e-05,7.447785939978228e-08
2.5185061156116816e-05,-1.7515265984463188e-06
2.2801600065998444e-05,7.575936489434243e-06
2.3268740825569348e-05,2.866154641985268e-07
2.2228329379818286e-05,1.2562900062739623e-05
3.358106552527461e-05,1.650508726677258e-05
3.867142936747141e-05,3.2137301818594417e-05
3.999616795834092e-05,2.2580204360308848e-05
3.477784572079446e-05,3.36863547697217e-05
3.464733629967848e-05,1.9987873742577374e-05
3.811474991928021e-05,3.273270564595873e-05
3.392902148763088e-05,2.5597396072061622e-05
2.979612248195849e-05,2.917219913210731e-05
2.871013765243564e-05,1.8886432702103418e-05
2.5112173138670277e-05,2.295982083312402e-05
1.8588696383985442e-05,7.463930864522646e-06
2.64549350835342e-05,2.2121930977815845e-05
3.441407955145214e-05,2.0885647401631237e-05
4.207734115822866e-05,4.3563595694121996e-05
4.434183868874752e-05,4.014352686058921e-05
4.20131994606702e-05,4.510973678904082e-05
4.173308812144744e-05,3.569113727627087e-05
4.4202568032984264e-05,5.211648346010635e-05
3.933612798542102e-05,4.116455014503664e-05
3.649365973820087e-05,4.4559679341885336e-05
3.672037172354374e-05,3.5904524682536846e-05
3.513517334792414e-05,3.9053959737104724e-05
3.484538249688835e-05,2.6075795678799232e-05
4.4410089205955296e-05,4.404491893392097e-05
4.0957040056504596e-05,3.524614884700377e-05
5.216335013838133e-05,5.1069963507996846e-05
4.1611144841256886e-05,3.0732180660867996e-05
4.676635390089328e-05,4.8186121250501395e-05
4.197558442823181e-05,3.4292377189703255e-05
4.403778732552895e-05,4.417777313392079e-05
3.8830089340599615e-05,2.8641737545297645e-05
2.9580117841786718e-05,2.9585889904734797e-05
3.717057118074962e-05,2.402279462748121e-05
3.6228658999348946e-05,2.9633228238565548e-05
4.2599299141061616e-05,2.618568592630506e-05
5.354667439909815e-05,4.876839410457634e-05
4.651750664247929e-05,3.4376753513505346e-05
4.834844259265315e-05,4.2329665585000954e-05
3.916301703471018e-05,2.809513768600062e-05
3.664276510127407e-05,3.7720840243873704e-05
2.9104492313617053e-05,1.9383632921686422e-05
2.395898471179936e-05,2.3388037467464553e-05
1.9089583633476647e-05,1.3567006955152373e-05
1.9849458951445444e-05,1.662581311886368e-05
2.0302485218172597e-05,1.0868686956661174e-05
2.7221494495991164e-05,2.8284127693176646e-05
2.3732303059619635e-05,1.9835565117479497e-05
3.118492080131659e-05,3.946061627169047e-05
3.263886182718525e-05,3.886975304622344e-05
3.84212203162031e-05,5.2001590895107054e-05
3.188062681313865e-05,3.5573998976164993e-05
3.0789255061289106e-05,4.396600376362886e-05
2.4241864993703113e-05,2.1214303881356917e-05
1.2385078287623116e-05,1.7229194699292367e-05
1.2285241220736418e-05,6.870276465949293e-06
1.0147271587159945e-05,9.945174912623216e-06
7.940178618927556e-06,-3.20568711173438e-06
8.498978749670946e-06,8.687091792550049e-06
1.332761322015545e-05,3.4800932250746044e-06
1.4959166711145914e-05,1.7069338656869226e-05
2.2742801154444608e-05,2.408769188886031e-05
2.3343213566530227e-05,3.3372631905181635e-05
2.056146182077401e-05,2.1452428575112808e-05
2.5906069650037398e-05,3.098966224786099e-05
5.483620482916561e-06,8.52083389392754e-07
1.7722965032835719e-06,5.44257555988108e-06
7.608656351109422e-06,-5.769839638083453e-06
1.383151462911318e-05,1.0904099234905618e-05
1.1685487288453326e-05,2.570092124332444e-06
5.5266355958380165e-06,5.77843178084921e-06
1.3294102389671887e-05,6.624177495753741e-06
2.3814948407169808e-05,3.136861713952081e-05
2.172858144883166e-05,1.9919509268013848e-05
1.863833265120098e-05,2.2281142980704915e-05
1.979293520788319e-05,1.597110291902898e-05
2.5423096121030627e-05,2.7603971433371407e-05
1.0602644653175237e-05,6.244197690523398e-06
9.7823611887142e-06,1.2752429989938364e-05
1.0317068553354535e-05,-2.83263621852514e-06
8.962522072249752e-06,6.965378623865192e-06
1.0206565468804204e-05,-5.378154176582627e-07
1.176512434067194e-05,1.128854967815355e-05
1.2172043381696716e-05,7.959840754832454e-06
2.0994587578260792e-05,2.289810020136154e-05
1.8988348210981467e-05,8.622358956912376e-06
1.559311360872073e-05,1.1077968301293213e-05
1.5184545484790464e-05,1.679112582674459e-07
8.938137387353469e-06,-2.6706651374513413e-06
1.235449752922097e-05,-1.1565873369110653e-05
1.1435698121652892e-05,-5.726856498092033e-07
1.1272505915738356e-05,-9.589749069813682e-06
1.6485607187852015e-05,6.010745630247503e-06
1.877422900784918e-05,1.7979251897628448e-06
1.9109387290608857e-05,1.3424898751103724e-05
2.3457789613078006e-05,1.0407453335772813e-05
1.7248114349629048e-05,1.021661920640108e-05
1.3392978013654695e-05,-3.734341240817681e-06
1.4357424473776607e-05,8.087409338511267e-06
1.4639790115192047e-05,5.243837806592885e-07
1.6511407348313943e-05,8.563291860762598e-06
9.482602820640598e-06,-1.17013530759605e-05
1.0616359274262616e-05,-5.207974515399744e-06
9.444128895766813e-06,-1.674812753462569e-05
2.1715821118638898e-05,4.958568563595932e-06
1.6894689371208153e-05,-1.4107374451241582e-05
2.064647984772802e-05,-3.4013228181962223e-06
1.7150261145268465e-05,-1.3820732997470184e-05
2.488455238782036e-05,1.6382699887430531e-06
3.7183088198278473e-05,3.669276709928224e-06
3.4373950319330936e-05,1.119459715605584e-05
2.9754170958868085e-05,-2.856540218278218e-06
3.0208339433782134e-05,2.5956656216065723e-06
2.6902729665884325e-05,-6.0476352211481335e-06
2.9379592037002686e-05,-3.9626268193170274e-06
1.7429409886511948e-05,-2.387806474530361e-05
2.3894935043501562e-05,-7.474628474532373e-06
2.3644440960828516e-05,-1.2374085798673335e-05
2.9754492596336676e-05,-2.78609405408661e-06
2.9179405063871188e-05,-8.50070959368461e-06
3.602788645239752e-05,1.0089987708896601e-05
2.635463865471166e-05,-2.61252823312659e-06
2.0681748389443557e-05,-1.005169074304818e-06
1.5734754128084536e-05,-1.9033758210866622e-05
1.6540581507523602e-05,-1.0703487715988896e-05
1.4501539662260973e-05,-2.2872494268310163e-05
1.413770501063518e-05,-1.2583913630793393e-05
2.1564568404287456e-05,-1.618171287296971e-05
2.472426848947971e-05,-4.296757634267494e-06
2.5719508297466995e-05,-5.097411422558697e-06
1.9724787739643656e-05,3.1888355957606156e-06
1.9867446794790067e-05,-6.234473571209026e-06
2.1084991004148426e-05,4.2914915868808525e-06
1.595037731202639e-05,-1.1017496351473164e-05
1.1925195976796857e-05,-7.868737373802593e-06
6.401499892295288e-06,-2.4234701992810417e-05
1.0660195395658829e-05,-1.0675125011787374e-05
1.951400918173734e-05,-8.673156888095553e-06
2.4497377682350553e-05,7.322271422861923e-06
2.2353884197856043e-05,1.1114505626361333e-06
2.4100110668482766e-05,9.032411913052784e-06
2.1321576559334057e-05,-6.686196832965865e-06
1.81149096986682e-05,-3.362989420774998e-07
1.4212826597741773e-05,-1.7717931102627145e-05
5.376255568788218e-06,-1.7423649448444763e-05
1.0643865382610966e-05,-3.087815137223344e-05
8.73122750023127e-06,-2.218210650596307e-05
8.599498310963902e-06,-3.7686841778507425e-05
2.432876260779055e-05,-1.6852709492922377e-05
2.1297720169742905e-05,-3.311984729693657e-05
2.4557049255418312e-05,-2.481978806412595e-05
1.8993102218941152e-05,-4.245954547545428e-05
3.0342603435206363e-05,-3.4064655272950224e-05
2.372079581444656e-05,-5.1272498918935747e-05
2.935186645202063e-05,-3.9612467717822615e-05
2.695193510842001e-05,-5.746424873724719e-05
1.9022522283387358e-05,-5.642401129645748e-05
2.7077389253761445e-05,-5.891267585356692e-05
2.4736645136731314e-05,-5.191498300267485e-05
2.5918167479549873e-05,-5.264179143784945e-05
3.7731769521925336e-05,-3.524433467617904e-05
3.376389560829826e-05,-4.706079658759097e-05
3.387976142556416e-05,-3.650251161513357e-05
2.3622210837937517e-05,-6.05126493114778e-05
3.260832703569205e-05,-4.196166000137849e-05
2.9600832894835567e-05,-5.338324059559073e-05
2.653983880530368e-05,-4.463430220861912e-05
2.541754117723612e-05,-5.579540290904426e-05
2.1533638722603415e-05,-4.439359520465702e-05
3.3328912980278336e-05,-3.896454710166654e-05
3.415803274048686e-05,-3.4080805004765124e-05
2.5634578317797668e-05,-4.9948592479601354e-05
3.624100960356442e-05,-3.041558710556407e-05
2.8087086576649594e-05,-4.2678775931688246e-05
3.508990978369517e-05,-2.5034742807763962e-05
2.9204914777348496e-05,-3.605061412706907e-05
3.3570828567345335e-05,-2.317282764049797e-05
3.7454022609645416e-05,-2.3217272500666073e-05
3.863460086071793e-05,-1.2000626278109397e-05
3.0049666233006334e-05,-3.209585662218001e-05
2.643963826520217e-05,-2.2127808002789646e-05
2.8841530178608732e-05,-3.4070101397253655e-05
2.9853197354702086e-05,-1.7223635964929652e-05
3.156150513621242e-05,-2.7159474504067777e-05
3.107838524777015e-05,-1.6718797779228277e-05
3.1941973215682906e-05,-2.1362730369968745e-05
4.294809544299393e-05,-2.7121368549987854e-07
4.0001226900347495e-05,-1.050276956267661e-05
4.01888275247379e-05,-9.524717793957676e-07
3.932281257965792e-05,-1.6264082195276622e-05
2.9286410361805057e-05,-1.769164310027059e-05
3.033157349428744e-05,-2.1655951533699925e-05
3.5109114798957726e-05,-1.2782091693461554e-05
2.4384532372874214e-05,-2.5670799758063966e-05
2.2497728405869487e-05,-1.5904180540770067e-05
1.889556251906504e-05,-2.4430191489721362e-05
3.0376982353001606e-05,-3.2673761299528366e-07
3.7125932428149416e-05,4.14515312222412e-06
4.479582593056656e-05,1.805042420399226e-05
4.6463464226073285e-05,1.0609386659369571e-05
3.9078118570877496e-05,8.05986294604982e-06
4.0685879741098953e-05,2.319784147945188e-07
3.357080612084041e-05,1.9660909499721857e-06
3.5512889393842585e-05,-8.87282796576594e-06
2.747385503567851e-05,-1.4459173168802526e-05
1.2982679732292271e-05,-3.318659626652106e-05
3.075639541458574e-05,-5.261678134361933e-06
3.530454496653259e-05,-1.0212609178750507e-05
2.9925968825296188e-05,-2.3563391979429196e-06
3.261129148349906e-05,-5.165305563618759e-06
3.645985975074763e-05,5.11069236968682e-06
3.179397219402959e-05,-1.3470329367862013e-05
3.644331695784229e-05,-2.5038872743575035e-06
3.0143714094198733e-05,-1.89243715714979e-05
3.8357938211163536e-05,-3.7531863038112423e-06
1.5721504620081243e-05,-3.490520469002134e-05
2.773412680348638e-05,-1.63064586965667e-05
2.2799350340102096e-05,-2.7027913338039196e-05
3.780275583033302e-05,-3.261253908576342e-06
3.4339826303946806e-05,-1.4207126319094771e-05
4.615589452639063e-05,8.101851906054376e-06
3.8068684637176835e-05,-1.1904263389030202e-06
4.316779540151993e-05,1.212600048790333e-05
3.6296108249344173e-05,-5.816763022680901e-06
3.8010533495048875e-05,4.791380061426949e-06
3.207794812336128e-05,-9.236211745552533e-06
3.0563463328585105e-05,-1.3472650074029753e-06
3.51087202714565e-05,-7.96610191391062e-06
3.2422960581906487e-05,1.6928107355955751e-06
3.802199844893148e-05,-4.265591528477126e-06
3.448786212439523e-05,2.00214228252917e-06
3.443685214414018e-05,-1.1307843959701925e-05
4.7811759845590304e-05,1.3063460844025548e-05
4.2364480396910745e-05,-1.4478439346229485e-06
3.475336453695287e-05,-3.272988909894879e-07
3.55277842086575e-05,-3.579319292667904e-06
3.6018422339255155e-05,4.30085191604021e-06
3.852375996303511e-05,-6.027269237023895e-07
2.9604248944028213e-05,-7.454952408056155e-07
2.7182209921256903e-05,-1.5761951923649437e-05
2.960466188902506e-05,-3.5514868735213326e-06
3.610548295039352e-05,-1.0159932199409445e-05
2.9453142900779308e-05,-6.049025422077896e-06
3.346650703100995e-05,-9.772444258319121e-06
3.931050362839412e-05,-3.7114063891484573e-07
2.992773610533059e-05,-1.2731159457795088e-05
3.940600355289552e-05,4.611836851632963e-06
4.194853335925996e-05,1.813864719936344e-07
3.832852182505965e-05,2.659298046163132e-06
3.533709489097754e-05,-4.544883879658077e-06
3.908057811587165e-05,-2.7671712513550524e-06
3.213480181226286e-05,-1.4677854446939957e-05
3.602905923014736e-05,-7.641801553510261e-07
3.863323273716825e-05,-9.460674797234569e-06
3.938013685414561e-05,-4.983218822185956e-06
3.377330262071847e-05,-1.0143375514058348e-05
4.48616823494241e-05,1.5881738640822788e-05
5.202194544157426e-05,7.996546765157661e-06
4.375444875393394e-05,1.1365571995597055e-05
4.177972518080765e-05,3.1016265773224737e-06
2.92813629328404e-05,-1.588318091172112e-06
2.4006991326709415e-05,-1.5542338149211812e-05
1.6141069694729748e-05,-1.9057598739960014e-05
2.6001147702575604e-05,-1.2907875263247574e-05
2.199498494775217e-05,-7.98676014103161e-06
2.2088933766040844e-05,-2.0650397470237808e-05
3.0980745978532945e-05,9.736078790842734e-07
3.905648230565117e-05,3.383608492314817e-06
3.953995135013037e-05,1.0157870323241258e-05
4.40398290307587e-05,6.343779322364831e-06
4.321932850604034e-05,1.4224783397393113e-05
2.884867252513183e-05,-9.42664419772241e-06
2.8114690361622915e-05,-2.566901452239789e-06
2.6952907262013013e-05,-1.4852554718074124e-05
1.486345876138781e-05,-2.0308857356965814e-05
2.0320388234447112e-05,-2.1335844322435353e-05
9.9079143687211e-06,-2.1727622729811823e-05
1.8013038656376523e-05,-1.8276586568881323e-05
3.7493956673539814e-05,1.571718140743791e-05
4.194189439322217e-05,1.3974200887446044e-05
4.319045684233582e-05,2.225862792924337e-05
4.5833148559080564e-05,1.0523914168498071e-05
3.3665559764641076e-05,9.239534946151115e-06
2.8497998385426817e-05,-7.385599017351935e-06
2.8186176399841742e-05,-5.147598622281351e-06
2.167039662225684e-05,-2.4744163056242816e-05
1.5215129119941668e-05,-1.9349358690680362e-05
3.0859206584619485e-05,-1.6249569936780828e-05
2.52794952054739e-05,-8.75474698996708e-06
3.197189257871477e-05,-5.289730840741869e-06
3.431757139297073e-05,7.81106493438411e-06
3.5949746366931174e-05,-2.5095705568611826e-06
2.6093073994922784e-05,-4.2763692003308675e-06
3.117435386382823e-05,-5.694370226573966e-06
3.0906435551045004e-05,-1.924673593835498e-06
2.269175364044136e-05,-1.9249147246924595e-05
1.9659481946397876e-05,-8.387578696970528e-06
2.5677816111064533e-05,-1.0226400829345899e-05
2.5376555192694084e-05,-5.231970327732914e-06
2.613628593394534e-05,-8.030200500375052e-06
4.389075158116609e-05,1.991059706439934e-05
4.013354187064624e-05,9.009868591911371e-06
4.1673725335266525e-05,1.563271696666395e-05
3.358794809369995e-05,-1.2653132338485477e-06
3.553168722475257e-05,5.1962402884265505e-06
2.6172052292020336e-05,-1.1620183992369018e-05
1.9639082024727735e-05,-7.146394853173405e-06
1.610434501260164e-05,-1.7760990374543134e-05
1.9734156909767166e-05,-8.600415140863428e-06
1.6593194090906977e-05,-2.1837604980260876e-05
2.3875335860712242e-05,-2.027354544088184e-06
3.2824188645691085e-05,-4.0465230680480805e-06
3.652131530699716e-05,8.942315606629423e-06
3.367610194047501e-05,-5.23231129041795e-06
2.5498726367909806e-05,-1.8146975935755875e-06
2.3299791498524133e-05,-1.420847075435959e-05
2.1678269985162077e-05,-6.1513523213152845e-06
2.7510820905320475e-05,-1.1255061816912735e-05
2.9108093526478882e-05,-3.3523134405455105e-06
3.0050884367815567e-05,-1.1973551083143596e-05
2.7445342248305758e-05,-6.889921995054224e-06
3.53365844868227e-05,-1.6280124581260716e-05
3.296517044189745e-05,-1.3669274384774442e-05
3.231868483940201e-05,-2.469045077433601e-05
3.683373034293957e-05,-1.4794385441978501e-05
3.639651557388169e-05,-2.5056950399503405e-05
3.753218677436228e-05,-1.7785161753716998e-05
4.09852282080878e-05,-2.1847750947486997e-05
4.626472611713209e-05,-7.011544429114491e-06
4.2693047021346966e-05,-2.1728144742459818e-05
3.8722978066723125e-05,-2.242585797854645e-05
3.7006716295433115e-05,-3.919278386838931e-05
3.845816875406501e-05,-2.9535702162996815e-05
4.353295163853147e-05,-3.680472161092563e-05
4.430080329366158e-05,-2.8240148189543845e-05
4.21365671365419e-05,-4.266325236921778e-05
4.867720295693688e-05,-2.819075653719863e-05
4.9600070087686854e-05,-3.7860032263960316e-05
5.0010442808639396e-05,-2.684454498192801e-05
4.4636948952376054e-05,-4.0688629219423954e-05
5.079837688711063e-05,-3.0340952433206173e-05
3.955111777169015e-05,-4.955063546263512e-05
3.7450370395190954e-05,-4.8371677351866804e-05
4.322233069483692e-05,-5.717074271517251e-05
4.469732260411905e-05,-4.5998709319314415e-05
4.57167122266761e-05,-5.341359229544592e-05
5.193060484180023e-05,-4.043549668016919e-05
5.3594207292082326e-05,-4.543151754513737e-05
6.271308315499741e-05,-2.949106087437246e-05
6.046143031901412e-05,-4.192410869294907e-05
5.298360998316274e-05,-4.5266830172910216e-05
4.2598691935471886e-05,-6.443717979545726e-05
3.723423324502854e-05,-6.779941366973878e-05
3.952512352102225e-05,-7.85155989351056e-05
3.7452835667223544e-05,-6.790889023223018e-05
4.1363021259407534e-05,-7.467018769050832e-05
4.271227614384311e-05,-6.138617849690531e-05
5.5426043008621676e-05,-5.856479429321055e-05
5.584034834485526e-05,-4.9673185388929526e-05
5.8802261087812174e-05,-5.991198802804902e-05
5.221560017155572e-05,-6.092895929517764e-05
4.660861057629237e-05,-7.98699504102555e-05
4.631637516756108e-05,-7.313640060870204e-05
4.379151183522507e-05,-9.054156647159497e-05
5.427836437392179e-05,-7.233719881087215e-05
4.729077818790828e-05,-9.003004582898e-05
4.52641534366077e-05,-8.112645029268675e-05
4.8309680119501964e-05,-9.000059928687602e-05
5.502293544229128e-05,-7.340696122513448e-05
6.497701905766162e-05,-7.445905123960727e-05
6.422360590603102e-05,-6.658204639564116e-05
6.725654413061811e-05,-7.70000801953949e-05
6.126730143286755e-05,-7.874474991156944e-05
5.7126288515298385e-05,-9.411873384178119e-05
6.04148072581642e-05,-8.306351585341515e-05
5.9566035527456e-05,-9.535630773662809e-05
5.410786516109266e-05,-9.344503169646942e-05
5.392544509455294e-05,-0.00010542889112855965
5.531068384810756e-05,-9.629739695472516e-05
5.708345088244689e-05,-0.00010173746946298294
6.538369257219196e-05,-8.32224843427805e-05
6.547729629137899e-05,-8.784389944718831e-05
6.971685106945381e-05,-7.890512453935046e-05
7.118566116208598e-05,-8.745681560489578e-05
6.303891144123133e-05,-8.513747925336442e-05
6.462920024240001e-05,-9.658906710004737e-05
5.886747892547037e-05,-9.371884687387944e-05
4.6018577723304036e-05,-0.00011331396833514795
5.788520754211359e-05,-9.117351414651923e-05
5.745500866605308e-05,-9.52471076048509e-05
6.163814869843679e-05,-8.42489836759531e-05
7.014508130106343e-05,-8.236229682523636e-05
6.832666282126011e-05,-7.177967982974779e-05
6.372769078984501e-05,-8.568641452756668e-05
6.354277462227638e-05,-8.037830354221282e-05
6.025309033022944e-05,-8.526920299854603e-05
5.95372775501495e-05,-7.631501165201628e-05
6.0686098793239704e-05,-8.176437367254213e-05
5.698253331046069e-05,-8.006979839850319e-05
5.7868684876616854e-05,-9.169829899833736e-05
5.2809051269597104e-05,-8.224630697613735e-05
5.7990490237328636e-05,-8.365285964401392e-05
5.350472020584038e-05,-8.272139894264194e-05
5.287433134492971e-05,-8.994393458332002e-05
5.617714264143138e-05,-7.564249433431698e-05
6.280578070495471e-05,-7.910864368559846e-05
5.4886726555938876e-05,-7.286166121901234e-05
5.324707681812929e-05,-8.223032062732062e-05
5.142046602649496e-05,-7.786639773262219e-05
4.7965737018359265e-05,-9.100319532875362e-05
5.228050885664987e-05,-7.674353251920123e-05
4.427190392870098e-05,-9.051995318887759e-05
4.824338732967637e-05,-8.234997952896359e-05
4.4459370140428984e-05,-9.014877958578895e-05
4.5234892868146735e-05,-8.186101925519142e-05
4.414394976868641e-05,-9.132831478934183e-05
4.532274825620327e-05,-8.001997976050926e-05
4.2864641675706475e-05,-8.351218471947825e-05
4.8722448740805133e-05,-6.265461368158987e-05
4.954322909303544e-05,-7.14719607809454e-05
3.6863362678662536e-05,-7.315259671864312e-05
3.814202485705572e-05,-7.463840339984581e-05
3.114386115619139e-05,-7.533034102730556e-05
2.7496306618147226e-05,-9.225209476015178e-05
1.831164264799851e-05,-8.427602798064696e-05
2.31396250779361e-05,-8.917806614972406e-05
1.9740487750739494e-05,-7.819831451192937e-05
3.157077396110351e-05,-7.659735476579454e-05
3.2119882350182084e-05,-6.197040434585665e-05
3.444539378143137e-05,-6.283172450442757e-05
3.825120615508357e-05,-5.205247736072472e-05
4.171920108580464e-05,-5.396313022936779e-05
3.540287744288682e-05,-5.5491368568789076e-05
2.3024838593929827e-05,-7.909347509984497e-05
1.72686749141956e-05,-7.859780374882122e-05
1.9386038387484588e-05,-7.824693145557432e-05
1.3905728942337213e-05,-7.942349802864602e-05
9.342432940799576e-06,-8.964775347304756e-05
1.1102654292887888e-05,-6.966019581630045e-05
1.9162923443071925e-05,-6.974558064229492e-05
2.7729638516206463e-05,-4.1369068656036426e-05
3.1778897916834507e-05,-4.821810588927611e-05
2.5602993113358094e-05,-4.594857267085323e-05
2.2993199713041093e-05,-5.234494115591704e-05
2.378433770035705e-05,-4.098515214022505e-05
1.3590941318188082e-05,-6.493516133298984e-05
3.3221577629935444e-07,-6.36725635599142e-05
4.0803698528887996e-06,-6.853124889400484e-05
4.195021797227214e-06,-6.235169431842394e-05
4.197412638633734e-06,-6.747098722643675e-05
8.501731274770925e-06,-4.989066925611826e-05
1.3062613841888669e-05,-5.344000353918797e-05
5.602593924477082e-06,-5.1737416887198905e-05
7.586721087325959e-06,-5.357347360039241e-05
1.3017394489575056e-05,-4.7294409817873686e-05
7.951856904921253e-06,-5.149971643169624e-05
4.135971935560521e-06,-4.643342144289131e-05
3.020835976995475e-06,-5.620254358547865e-05
6.534019626280949e-06,-4.5961070473200134e-05
7.4065137158672525e-06,-5.094446408835046e-05
8.536086130689253e-06,-4.342776658845835e-05
1.2358884730492875e-05,-4.636881947481796e-05
6.098142578778e-06,-3.814585718766425e-05
1.0145401752689586e-05,-4.2574886993017795e-05
3.5879058990981134e-06,-4.408367685224985e-05
1.2410081417600194e-05,-3.732396233416513e-05
1.5111272509437264e-05,-2.386098761079584e-05
1.4845768927612103e-05,-2.83234699455722e-05
1.3549419304109017e-05,-1.907450877449585e-05
1.1589161898583966e-05,-3.1575889806739794e-05
1.3093659542578905e-05,-2.0762657819096163e-05
1.2572627447438278e-05,-2.901235766649088e-05
1.1137935203892685e-05,-2.5260889159079036e-05
1.444280187097167e-05,-2.7350048377073974e-05
1.9928276128275257e-05,-1.2427020354640407e-05
1.4144842527980261e-05,-2.0523083457414387e-05
1.6481824911725882e-05,-8.508505737985418e-06
1.9650885707471412e-05,-6.808576306287678e-06
1.638213783138399e-05,-2.009429146908503e-06
7.435100211617023e-06,-1.7867140230065563e-05
5.260907532762565e-07,-1.5921937049201483e-05
-1.4962585098984736e-06,-2.375733524053705e-05
-3.1625736793343383e-07,-1.5629076532737212e-05
1.571861965111836e-06,-1.9768348981218622e-05
2.3655421893244468e-06,-1.0476252293116392e-05
6.982309479642398e-06,-9.342511494993436e-06
1.4057352592349419e-05,4.554020025686139e-06
7.61902376665531e-06,-5.581839108817711e-06
1.8804342342550543e-05,1.2008571239206844e-05
1.1416213969528824e-05,-1.518356956326763e-06
9.225558228067845e-06,5.309386057953518e-06
-4.984748465851611e-06,-1.528202217933693e-05
6.043346143949313e-06,4.715900093094349e-06
-4.682314062262223e-06,-1.544371377638075e-05
-2.6735337759078945e-06,1.374752585325905e-06
5.450143572804841e-06,5.2451396831872206e-06
1.4510719112507268e-05,2.2433923218231745e-05
1.493369817185495e-05,1.5191057458427269e-05
1.1910056555545325e-05,2.2570434470829843e-05
1.798401313483224e-05,1.825957744533575e-05
1.3897001726858403e-05,2.019433790786565e-05
1.819305547470957e-05,1.6178539071239548e-05
9.319847415781301e-06,1.6604368396308734e-05
9.295630657974944e-06,4.008786627670866e-06
5.646184022970765e-06,7.615210534043756e-06
1.2229663340866244e-05,9.85710999019633e-06
2.5890783404959218e-05,2.566950667287991e-05
1.2192330014061749e-05,6.792308073300366e-06
2.2656534324741883e-05,2.4166471743889244e-05
1.290941997082303e-05,8.071317492708555e-06
2.230936728391699e-05,3.1444554913708055e-05
1.7157714997929924e-05,1.2509536589063086e-05
1.1881393074703966e-05,2.315573669613505e-05
1.5279738526188857e-05,1.8166280904304973e-05
8.507487654264292e-06,1.8786509157247155e-05
9.104030990003759e-06,1.2871569269515148e-05
1.404871911020718e-07,8.81335775538917e-06
8.341125997986663e-07,-9.395875823678534e-08
6.834776324540941e-06,1.6059610260934403e-05
2.0780465707356072e-05,2.3289322145377082e-05
2.229961266632979e-05,3.952077196462596e-05
1.9419873209673404e-05,2.6188895892033987e-05
2.0718449385867257e-05,3.299262353034625e-05
2.5597061825327365e-05,2.929690097546474e-05
1.8099290123338603e-05,2.6786694184408657e-05
1.4418830308768624e-05,1.3077858172956427e-05
9.560748610302054e-06,1.6574507485000316e-05
7.708540859321718e-06,5.76666226322493e-06
6.142918413123855e-06,1.202618330894045e-05
1.5876224068783485e-05,1.1965954553153605e-05
1.2471090490673233e-05,1.568045836792746e-05
1.5907453134338817e-05,1.1869021839587572e-05
1.943536378441982e-05,2.4505313611131998e-05
2.279833197351195e-05,2.124922734267419e-05
2.481890638615238e-05,2.668720365631961e-05
2.5407812268594934e-05,1.8083563194860783e-05
1.0633403795712936e-05,1.5553654660032397e-05
9.965068628025814e-06,4.7440929504711105e-06
4.009269571714825e-06,3.4764549749905072e-06
9.156795991501467e-06,2.1161951365533335e-06
1.2193113334356174e-05,1.3377762801885182e-05
2.1159470889246346e-05,1.746019932371367e-05
2.4287804028498046e-05,3.7254429384112257e-05
2.998174482032339e-05,3.37494583149807e-05
3.611703038852179e-05,4.3987334451264505e-05
2.4368575903291714e-05,3.257375738279335e-05
2.469569946693962e-05,3.8622669888721524e-05
2.6844346364495135e-05,3.001486242096257e-05
2.0903507392105758e-05,3.338493189951864e-05
1.764254537223399e-05,2.1446896300155753e-05
2.214348684500531e-05,3.3966715714905554e-05
2.525308646886722e-05,3.2210932812088076e-05
3.277763010425128e-05,4.814765435118308e-05
3.27711687742398e-05,4.455825425550414e-05
2.6019203102803526e-05,3.776871703937629e-05
2.4272170621250524e-05,3.730009118864633e-05
2.7251790858069924e-05,4.918404309132925e-05
2.343684919660017e-05,3.685452616813051e-05
2.6769320810631204e-05,4.422225656794462e-05
2.237199798587931e-05,3.937196887009226e-05
2.5971318946528303e-05,5.1357007331541695e-05
3.109738428280516e-05,5.371038410239945e-05
3.715989521082537e-05,6.52286438211551e-05
3.398565766421643e-05,5.780157887293269e-05
2.610004041564817e-05,5.382164657866704e-05
2.6708069540708935e-05,4.2398036003042313e-05
2.2231016586976046e-05,4.796633509728883e-05
2.610540167463897e-05,3.622089205805955e-05
1.946807915561958e-05,3.4435705042595234e-05
1.7190444009511124e-05,2.6203399141624032e-05
2.2787746227869127e-05,4.229195792023467e-05
3.791311482289727e-05,5.1265799324026345e-05
4.409991834520552e-05,6.55523455745374e-05
2.8100782369461156e-05,4.615994695233189e-05
2.6495998412998865e-05,5.233414863867541e-05
2.3650628119022786e-05,4.128298370271194e-05
2.1307256450727144e-05,4.7952221973562535e-05
1.9127928762675615e-05,3.732045869246944e-05
1.500793352327145e-05,3.835869756967737e-05
1.4418993311040989e-05,3.0333630446435975e-05
1.2116517455685052e-05,3.794479316234947e-05
8.368318601200832e-06,2.410123180643491e-05
1.0199707985352773e-05,3.1459029193816355e-05
1.6904587826809045e-05,3.638773475182628e-05
2.014953269711374e-05,4.597356985838742e-05
2.3568579632518126e-05,4.202928522767506e-05
1.809038950119681e-05,4.534926152037845e-05
1.3304661605862287e-05,3.4895072448396644e-05
1.527516582243582e-05,4.0814618668246914e-05
1.1143997244107156e-05,2.9709916419419625e-05
8.223977504586236e-06,3.092730662350067e-05
9.697789679930408e-06,2.8044444949311954e-05
1.2091944988092816e-05,3.6556309568045576e-05
1.6104378749113683e-05,3.826311487493017e-05
2.0305695250615403e-05,5.6039336749039376e-05
1.6696026928812445e-05,4.369250145526903e-05
1.9689903821966353e-05,5.2009418999068585e-05
1.3958403552799986e-05,4.525829769064869e-05
1.2778402171163715e-05,4.875852559814744e-05
7.428990649501424e-06,3.955793405039356e-05
3.194362100395654e-06,4.398063728588516e-05
5.337722703584526e-06,3.976477700423669e-05
8.863325211712821e-06,5.304471680934901e-05
1.076609816468631e-05,5.2400858434417225e-05
1.0191185733541641e-05,6.325475444557078e-05
1.0525056830381525e-05,5.162276706803354e-05
6.650990599738527e-06,5.882953678231647e-05
6.390260325301895e-06,5.6135547658016705e-05
4.6283362489313614e-06,6.186986283636601e-05
5.708363305655791e-07,4.9844764732584047e-05
1.499864681831422e-06,5.729728325928471e-05
1.5370497054459877e-06,5.298553181274774e-05
-6.288807675952912e-07,5.978508083036657e-05
3.999703216336125e-06,5.890068271879221e-05
1.3638596154696153e-06,6.345567511516324e-05
2.9162662282835737e-06,5.961057619481408e-05
9.140764228930336e-06,7.0403554523839e-05
7.990015898975426e-06,6.638969317226052e-05
7.629334212570805e-06,7.260305656234917e-05
-8.651881270229081e-07,5.800176119430113e-05
2.9752759240685407e-06,6.485235596219504e-05
1.1612630658460226e-06,6.129510117237938e-05
4.220892233366821e-06,6.618452301070696e-05
7.127740830199627e-06,6.663146463028793e-05
1.1352128567032543e-05,7.622430688346083e-05
5.270331796754275e-06,6.099381102856969e-05
1.6525818111340403e-06,6.452841341557596e-05
-4.867952405352677e-06,5.285745109472159e-05
5.404846380347147e-06,6.298740225164859e-05
1.457475178088652e-05,6.29621157426017e-05
8.259660263552986e-09,5.3808404168727244e-05
-7.3914219914524044e-06,4.104962829935868e-05
-1.6397960826201324e-06,5.607447773876235e-05
-4.066485862434261e-06,4.599512926333312e-05
-8.457190081335522e-06,4.661747621672858e-05
-7.090738173721447e-06,4.426532910118185e-05
-1.1609361784879678e-06,5.5625036365594045e-05
-1.1820582712861177e-05,3.475522319817835e-05
-1.2289615297866427e-05,4.2527257109912314e-05
-2.1959659194375864e-05,2.7618987067507352e-05
-1.915369464132539e-05,3.416101253351982e-05
-1.5873353895903985e-05,3.3964319701202695e-05
-6.021981757261142e-06,5.093513677112146e-05
-4.3422870742458e-06,5.130804718816166e-05
4.63980553760169e-06,6.387104719797117e-05
-4.030640007017165e-07,5.68810653194175e-05
-3.0444609645285074e-07,5.634484221962203e-05
-1.0465727347906207e-05,3.593961429620672e-05
-9.436597391709428e-06,4.0527121576091425e-05
-1.554768064292007e-05,2.8200694662642466e-05
-1.6789285170392113e-05,3.0872409847385575e-05
-9.15150889731358e-06,2.8032463777856724e-05
3.8870040645298815e-06,4.850692918691956e-05
-5.178582911226155e-06,3.105479936288723e-05
-8.783609503051029e-06,3.1820734177386587e-05
-7.72702194094326e-06,3.097238507044416e-05
-5.548272459539478e-06,4.2334582814132626e-05
3.5740186599308575e-06,3.975393985469759e-05
3.307406218209033e-06,4.603989938855797e-05
-5.239034859264109e-07,3.453640012865006e-05
-5.406977847907413e-06,3.1068855191803164e-05
-6.520361759858134e-06,2.4484336291343396e-05
-6.191767290325331e-06,3.269740225105012e-05
-9.939650729447299e-06,2.1474611208699255e-05
-1.2381711931066119e-05,2.3116094761300007e-05
1.426837120618429e-06,2.8905854960813804e-05
-1.9221543328725417e-06,2.744412626708187e-05
2.7171494687791433e-06,2.757549389408583e-05
7.703279038342322e-06,3.731053665481882e-05
4.116135715764531e-06,2.5232174601346227e-05
6.7384942316663116e-06,2.9456352450285913e-05
3.930019514329713e-06,2.3249683176078453e-05
9.844411363129198e-06,3.4455817544260135e-05
-9.487096618798647e-07,2.1720560796216897e-05
7.4090642632476966e-06,3.467636308652683e-05
1.6030338464397906e-06,2.159642680048101e-05
1.1383537900028929e-06,2.207798013744119e-05
1.9620580511174473e-06,1.8995240376213367e-05
-5.009391355921559e-06,1.3762840592796966e-05
-2.46226361850665e-06,1.1426134936351067e-05
7.545025023049234e-06,2.285033105613375e-05
6.743442089597072e-06,1.5322154990759088e-05
1.4589625995845017e-05,3.223245791361443e-05
1.878198289984812e-05,2.5449896492301113e-05
2.0989943893013732e-05,3.195407113841531e-05
1.777533961144086e-05,2.2935903227830006e-05
1.118398071574405e-05,2.2250701176941808e-05
1.1580098538454925e-05,1.0460821007840178e-05
1.5080254141859512e-05,1.9727812270495876e-05
1.3605252448174321e-05,1.3018147813613288e-05
1.9889542526846495e-05,2.3643155437539315e-05
2.70945479881662e-05,2.3755355674596734e-05
3.1066767077440436e-05,3.424285601478223e-05
3.4734227310838985e-05,3.366733930072771e-05
4.223232315704526e-05,4.5252581900685866e-05
2.8848775996983558e-05,2.5837501297906885e-05
2.687691915998494e-05,3.0395789699601805e-05
2.7126299190439924e-05,1.8267010928365654e-05
2.696176506609324e-05,2.3509208348575847e-05
2.4768951014884916e-05,1.5863778350604395e-05
2.6939363715493085e-05,1.896087077110165e-05
2.665046911212553e-05,1.7073179860754878e-05
2.9922647421692743e-05,2.7467244305321998e-05
3.639666594566517e-05,3.002503586024301e-05
3.98360533713833e-05,4.029185424360854e-05
4.653995538581522e-05,4.306555284468843e-05
3.332354872222117e-05,3.27277091127554e-05
3.344291901991737e-05,2.603729374884936e-05
2.621847741344911e-05,2.5909839511472433e-05
2.100958979650394e-05,6.324241118468975e-06
1.4319321980849873e-05,7.699395518474324e-06
1.594598054716067e-05,2.462547118595696e-07
2.3484954707670803e-05,1.624659222349477e-05
2.7566263748759086e-05,1.0598265128527977e-05
3.2258797662007025e-05,2.747742784548236e-05
3.8707509221371044e-05,3.238675105718816e-05
4.612564336794179e-05,4.5145668219939074e-05
5.085470999707498e-05,4.1136502494064324e-05
5.12008155696115e-05,4.6681499546278105e-05
4.532170895371421e-05,3.0108643287550134e-05
3.661718946465633e-05,2.9960402213346418e-05
3.3866945692435396e-05,1.7645967907404936e-05
3.114696972568914e-05,2.0173380561836433e-05
2.5882222694386688e-05,7.048361962541699e-06
2.479976475870405e-05,1.0024508476542615e-05
3.77566888980571e-05,1.913250231118633e-05
4.840910462399224e-05,3.4409692549111546e-05
4.8459189446361415e-05,3.013011139566613e-05
4.9816562428430054e-05,4.195993016876487e-05
5.0263091167908587e-05,3.239297870838948e-05
4.7871073924368556e-05,3.354701021084923e-05
3.454333178290212e-05,1.3831108953348156e-05
2.7840253771009172e-05,5.671944181858876e-06
2.5598941117302227e-05,-9.51380193243758e-07
2.653639862845267e-05,6.060551613826988e-06
3.465040641542293e-05,1.2565258969604605e-05
3.802965730647617e-05,2.2113336663075615e-05
4.575430287057724e-05,2.454768736999476e-05
4.490610910800267e-05,2.8125864659409206e-05
4.411643500631567e-05,1.605015005452407e-05
4.4653533926154456e-05,1.902298542251056e-05
4.215616601406268e-05,7.691592129520844e-06
3.499998797187886e-05,5.255496087924357e-06
3.184613133984854e-05,-5.679237664619105e-06
3.543375640671642e-05,3.6142263670846047e-06
2.9274499178107023e-05,-1.0046044435786636e-05
3.05937387543579e-05,3.4885841406673476e-06
3.695394584812736e-05,3.2021617761069496e-06
4.7903849528523197e-05,1.5943351505250792e-05
5.3961829686937827e-05,1.6132513177299477e-05
4.923880920527743e-05,1.8642662726708007e-05
4.587041515575878e-05,7.969893740370498e-06
5.15070277396961e-05,1.541587442128725e-05
4.427599227529614e-05,4.9275323287195776e-06
4.876271603827645e-05,1.0948751615936549e-05
3.772526169900984e-05,-1.9398475742397904e-06
3.576554648538576e-05,1.4247376207106371e-06
3.587774637366704e-05,-4.274606585988601e-06
3.392086392700322e-05,3.2308191238047356e-06
3.738170736521823e-05,1.4780359097456221e-06
4.00315259180727e-05,8.796250666078613e-06
3.43669894179007e-05,-1.8309079535250461e-06
3.88693766614854e-05,1.1725780382886508e-05
4.121036248961622e-05,7.306313332475553e-06
3.664416522025688e-05,5.833165861488305e-06
3.8713010085553845e-05,-2.1586365727468e-06
3.324028907505514e-05,-4.220043843953901e-07
3.989063972273276e-05,-1.8571628572422133e-06
4.183368869176542e-05,-2.186737784746179e-08
4.270432117241816e-05,-4.180127835187818e-06
4.732473242415394e-05,4.928174172363382e-06
4.547548138945187e-05,-7.213418068632367e-06
4.473709563747893e-05,-1.5293798222251843e-06
4.697240875614658e-05,-8.253923749273353e-06
4.7243856467325576e-05,3.906794114873643e-06
3.704208233751785e-05,-1.628300560102946e-05
3.328337253362304e-05,-1.9522679276268633e-05
3.17027868761064e-05,-2.418500906151934e-05
3.456753757581664e-05,-1.4746559816250465e-05
4.190684483429873e-05,-1.5694107536560635e-05
4.1645348555570635e-05,-8.112300707382155e-06
4.213028443652388e-05,-1.606090031394658e-05
4.454646374335948e-05,-5.184635034909312e-06
4.6672561848484854e-05,-8.396476086541547e-06
4.7088090741008905e-05,-9.085280806593542e-06
4.450860728966217e-05,-1.713152059552929e-05
4.217313680731361e-05,-1.577090730743927e-05
3.3297856495662794e-05,-3.225208860234069e-05
3.256894800630572e-05,-2.770422527442194e-05
2.883967369663372e-05,-4.178127302889155e-05
3.503644044349307e-05,-3.35149823391469e-05
3.0633509859545754e-05,-4.332773836919328e-05
3.677581149872347e-05,-2.8832405722604596e-05
4.320684688521105e-05,-2.8604031124880514e-05
3.944686839443228e-05,-2.592423650437984e-05
3.9424442307463436e-05,-3.294637243366516e-05
4.047806395113644e-05,-2.5750583952484115e-05
3.691242526581411e-05,-4.064268642427291e-05
3.2909893798535224e-05,-4.02701179445569e-05
2.3294957609528282e-05,-5.7277952880087336e-05
2.4099806712312322e-05,-5.117729169068347e-05
1.8933514317862228e-05,-6.484024643531429e-05
2.245947739453261e-05,-5.658406481717113e-05
1.9668211022484377e-05,-6.286233018485339e-05
3.458653160142864e-05,-4.737822482216466e-05
2.7508341548218264e-05,-5.073936411589229e-05
3.501718833924958e-05,-4.4109781643118355e-05
3.5635815314767116e-05,-4.785777151486028e-05
2.968226815227727e-05,-4.92250098170301e-05
2.6210680638226978e-05,-6.004317248555009e-05
1.3027039434053817e-05,-6.798264561909879e-05
1.8494295061440866e-05,-6.97824105336309e-05
9.301640070870039e-06,-7.525513980516268e-05
9.967276076485172e-06,-8.371659481772805e-05
1.1496154979333284e-05,-7.188334942830418e-05
2.1944495471144956e-05,-6.309120112731405e-05
3.0471360270728272e-05,-4.7697723079284905e-05
3.106215805312449e-05,-5.4052774076737107e-05
3.0682468085774977e-05,-4.83257811457287e-05
2.5872389732658437e-05,-5.625397481074732e-05
3.020269362181544e-05,-5.408161857201565e-05
2.286238435812019e-05,-6.737223863498374e-05
2.0563079584697562e-05,-6.459300169931904e-05
1.731312034702243e-05,-7.596229917773482e-05
1.8149823102527067e-05,-7.502044898140808e-05
1.745523917760864e-05,-8.047184374774379e-05
2.2835135161244854e-05,-6.57864424633901e-05
3.0988762928928775e-05,-6.704443747304832e-05
2.846706606648236e-05,-6.102056563124144e-05
3.236204360079699e-05,-6.334239347376006e-05
2.6827129307298063e-05,-6.465366893996568e-05
2.8000953111808996e-05,-6.992524465065267e-05
2.095557149405185e-05,-7.274749967594621e-05
1.6577235665131124e-05,-8.251172103803505e-05
1.1914443767059356e-05,-8.318823009484178e-05
8.41909306157754e-06,-9.492543079799457e-05
7.204315376422924e-06,-9.767375572371498e-05
9.646493362883162e-06,-0.00010029620059290603
1.551148635537904e-05,-8.702831776575702e-05
2.1077835654168118e-05,-8.660255668536806e-05
2.0286265538790702e-05,-8.1795989880023e-05
2.3800769287586303e-05,-8.266482954689883e-05
1.6755105156205346e-05,-8.7203586898334e-05
1.713126179925185e-05,-9.273041663442465e-05
1.8323307983434705e-05,-8.266994766277928e-05
1.3482620534373777e-05,-9.630419169608684e-05
2.1707238005699927e-05,-8.619617569126411e-05
1.687305149303864e-05,-9.579614312436487e-05
4.078018739460565e-06,-0.00010222326066682576
6.22822359138889e-06,-0.00010654953669385453
9.270382954267038e-06,-9.772950868143351e-05
1.924414703271226e-05,-9.054149599338354e-05
2.5279787279161486e-05,-7.760581584704948e-05
2.324420888062058e-05,-8.120174639434306e-05
1.881902951251424e-05,-7.877065177306496e-05
1.4973250154893369e-05,-8.784165408206075e-05
1.909735988325484e-05,-8.191048515298134e-05
1.376615667999872e-05,-8.969103597821575e-05
1.640752418940199e-05,-8.736175069850612e-05
1.7766308715092148e-05,-9.211761632528407e-05
1.9904964723609715e-05,-8.638027182123435e-05
1.8709073721430395e-05,-8.975950705905022e-05
1.3880739071348293e-05,-9.065998862288291e-05
1.8265588757112967e-05,-8.486151420757877e-05
2.563303705579904e-05,-7.375518711325747e-05
2.4564937595924078e-05,-7.922846391559204e-05
1.93985007844935e-05,-8.070163281438587e-05
1.8008946908076754e-05,-8.60941146526966e-05
2.2413633880105053e-05,-7.959803856663515e-05
3.30186631701585e-05,-7.356212161815448e-05
2.738569079774688e-05,-7.60635364272481e-05
3.1639502102903674e-05,-7.218749921445346e-05
2.5474501925045482e-05,-7.026865972305471e-05
2.091324313706218e-05,-7.642624426184995e-05
2.2319415229155416e-05,-7.256980013244656e-05
1.6261880151896158e-05,-8.445881970893029e-05
1.3661220423869597e-05,-7.899683848548127e-05
1.3918910468383321e-05,-8.292428925664588e-05
2.3468197672390703e-05,-6.481752790359955e-05
2.6842360467976802e-05,-6.954301399813186e-05
2.7422239036814633e-05,-6.265419789982322e-05
3.2423664039305264e-05,-5.821160035995131e-05
3.443044933492028e-05,-5.083206053584209e-05
2.824535174005738e-05,-5.8891119835274444e-05
1.969279275568382e-05,-6.640336908150794e-05
2.1552779186512075e-05,-6.951330701967922e-05
7.67996286757052e-06,-7.934349071771413e-05
1.024949081781114e-05,-8.026602603942074e-05
2.3533856360397057e-05,-6.539683214986057e-05
2.1649707721725888e-05,-6.340773748882676e-05
2.7733573940488035e-05,-5.102854313511736e-05
2.78275464927413e-05,-5.180720970768003e-05
2.9609306542427425e-05,-4.670635938621215e-05
2.4500215339198624e-05,-4.968333705237127e-05
2.021550234289159e-05,-5.725364594819933e-05
1.3310177977617784e-05,-6.80633234195812e-05
1.5493925448408074e-05,-5.962032716701253e-05
1.5680252341002622e-05,-6.878973215057805e-05
8.162175563215415e-06,-7.31499843485116e-05
9.022013955567653e-06,-7.34153569836689e-05
1.122705123571236e-05,-6.652922305085428e-05
4.648873598774668e-06,-7.806185717242933e-05
1.1283856709003448e-05,-6.482477306802087e-05
1.5198316579202388e-05,-5.858441496825704e-05
1.4891270475572663e-05,-6.066296976947855e-05
1.8305263589540686e-05,-5.718889986919702e-05
