150000,-0.0007535771989687582
150001,-0.0014194724875479937
150002,-0.001817011119022325
150003,-0.001687829238274554
150004,-0.0014656537722276752
150005,-0.0015814228195725477
150006,-0.0016737854825535669
150007,-0.0017246480815546815
150008,-0.0018310546875
150009,-0.0015352417221453818
150010,-0.001678466796875
150011,-0.0015814230068204617
150012,-0.0013779725171943471
150013,-0.0004256271727729295
150014,0.00029113108929864674
150015,0.0007535762627429938
150016,0.000702713570120223
150017,0.0008184837409387738
150018,0.000762939453125
150019,0.0008553012735019108
150020,0.0009710717251854299
150021,0.00091552734375
150022,0.00035135659781219763
150023,0.0006518505030016244
150024,0.0009108454676894269
150025,0.000762939453125
150026,0.0006658961311787422
150027,0.0014977870881842346
150028,0.0020157772047939486
150029,0.0025384494783246016
150030,0.003037711622602149
150031,0.003097938348201831
150032,0.0031073025684220544
150033,0.0029038520787959396
150034,0.0032645727095896504
150035,0.003148800853576688
150036,0.0030564400630471973
150037,0.003218392548388249
150038,0.0030932558167850632
150039,0.0026127235173004147
150040,0.001798921558795956
150041,0.0010821624541248731
150042,0.0007676218909155098
150043,0.0009617075049606049
150044,0.000874029713951561
150045,0.00046712873469933173
150046,0.0008091195207139488
150047,0.0008184846771599366
150048,0.000762939453125
150049,0.000869347369787309
150050,0.000762939453125
150051,0.00017131876526531905
150052,-0.0006886630735801745
150053,-0.0013177456043421496
150054,-0.001373291015625
150055,-0.0018310546875
150056,-0.0016369699160590132
150057,-0.001377973921528392
150058,-0.0016322871037772774
150059,-0.0016229211983488374
150060,-0.001530561905775048
150061,-0.0015720585057214648
150062,-0.0015814245984024206
150063,-0.00152587890625
150064,-0.0016322872910251912
150065,-0.0016229210111009234
150066,-0.0012347526853188858
150067,-0.00042563391358738936
150068,0.00029112603368780185
150069,0.00030985906164461807
150070,0.0008693480251435034
150071,0.0008599813707326112
150072,0.0006197183105325484
150073,0.0008693481187651595
150074,0.0006658976291390449
150075,0.000758255985482468
150076,0.0008552977158421653
150077,0.0008740317736556054
150078,0.0012066524412074357
150079,0.0006565306002369266
150080,0.0008599810898630412
150081,0.0012113358152283115
150082,0.0022607162428166226
150083,0.002802128378758615
150084,0.003190294457602499
150085,0.0032505245536186144
150086,0.003259892144255271
150087,0.003795961897108374
150088,0.004457175964969426
150089,0.005270977923473885
150090,0.0054931640625
150091,0.005400806736008599
150092,0.005479112067990445
150093,0.0053499442306291405
150094,0.0057240569106202215
150095,0.005964980009749523
150096,0.00535462854087118
150097,0.005936875271757165
150098,0.006644267815639012
150099,0.00745806977414347
150100,0.007828160804255732
150101,0.007837529331122755
150102,0.00792988600225336
150103,0.008314030431227628
150104,0.00787902330963059
150105,0.0079345703125
150106,0.007874338812140636
150107,0.008184198997258934
150108,0.007796035914344857
150109,0.008193567992238839
150110,0.007893076802094593
150111,0.008077789020910987
150112,0.008225692226807323
150113,0.008836043695685667
150114,0.010038007988117147
150115,0.0101631566097857
150116,0.010473017075768965
150117,0.010528564453125
150118,0.01068115234375
150119,0.01068115234375
150120,0.010976958381046845
150121,0.010695207053301388
150122,0.010667097540576957
150123,0.010685837309348233
150124,0.010482386819722118
150125,0.0103759765625
150126,0.0103759765625
150127,0.010773507423303248
150128,0.011665609096444169
150129,0.01249815157271156
150130,0.012923793256970031
150131,0.013011462902812165
150132,0.012974655949592804
150133,0.013016148055658311
150134,0.013219598545284426
150135,0.013275146484375
150136,0.013076381334838344
150137,0.01306701056103777
150138,0.012974656136836115
150139,0.01316873575904
150140,0.013081066955792772
150141,0.013265775429700253
150142,0.013289203160008775
150143,0.013067010373789855
150144,0.012826754054418058
150145,0.013016147681167085
150146,0.0130255190167068
150147,0.012526264174992056
150148,0.011564560040443282
150149,0.010847797565360367
150150,0.01068115234375
150151,0.010893974543402454
150152,0.010778191733549889
150153,0.01024213227917099
150154,0.010269565369047516
150155,0.010473015858673631
150156,0.010528564453125
150157,0.010634975740199141
150158,0.010625603655676974
150159,0.01068115234375
150160,0.01054262281396239
150161,0.009641154018293093
150162,0.008864156204330703
150163,0.008346157568067452
150164,0.00823974609375
150165,0.008535549322369553
150166,0.00813333452581089
150167,0.007948629328702788
150168,0.007781982421875
150169,0.0082538052971961
150170,0.008128647968621497
150171,0.007943943239626276
150172,0.008133334338562977
150173,0.008142707359310908
150174,0.008087158203125
150175,0.0079345703125
150176,0.00812864759413487
150177,0.00823974609375
150178,0.007920510266458994
150179,0.00823974609375
150180,0.00823974609375
150181,0.007888394457931594
150182,0.008073097782583565
150183,0.007648141883467454
150184,0.006575339904659747
150185,0.006256103515625
150186,0.005664499679829078
150187,0.005904752067049905
150188,0.005604263311097581
150189,0.005788965793154648
150190,0.005705988696343122
150191,0.005687240407909107
150192,0.005354637528632996
150193,0.004240346907816276
150194,0.003523583028390113
150195,0.003061132237582259
150196,0.003204345703125
150197,0.003107307717663759
150198,0.0030517578125
150199,0.0017527661139326474
150200,0.0011236652331604148
150201,0.0006244137618529007
150202,0.001128352726566371
150203,0.00091552734375
150204,0.00091552734375
150205,0.0005782390307443667
150206,-0.00023556292774168494
150207,-0.0009014645826533577
150208,-0.00152587890625
150209,-0.00152587890625
150210,-0.0013779786962788703
150211,-0.001770816633569489
150212,-0.002468830164866795
150213,-0.0034860826129973683
150214,-0.003935173747972647
150215,-0.003703596331828406
150216,-0.00440629735653627
150217,-0.0055252750962907285
150218,-0.005853890404269953
150219,-0.006389939560174646
150220,-0.006699803209308023
150221,-0.007698303624101523
150222,-0.008382957874084808
150223,-0.008683445506568055
150224,-0.009002685546875
150225,-0.009742184256166238
150226,-0.01025549858218745
150227,-0.011069300540691907
150228,-0.011735202850959775
150229,-0.011383852619475412
150230,-0.012275938376796745
150231,-0.013256393140334742
150232,-0.01383932378388395
150233,-0.013829947018237563
150234,-0.014477095890829711
150235,-0.015517790674385207
150236,-0.015896560794954533
150237,-0.016470115140984044
150238,-0.016465426524104407
150239,-0.017269851342471252
150240,-0.018287103790601826
150241,-0.01861572265625
150242,-0.01880979581849519
150243,-0.018772999257376292
150244,-0.01884659209874912
150245,-0.019766808059378756
150246,-0.020580610017864806
150247,-0.021163543002001434
150248,-0.02105712890625
150249,-0.021352926892001592
150250,-0.02125589049812691
150251,-0.0213623046875
150252,-0.021953900284516558
150253,-0.022689422095494745
150254,-0.022971152639025473
150255,-0.023489156986264966
150256,-0.024062713204741404
150257,-0.02356815437608615
150258,-0.023641744689646655
150259,-0.02366519067635298
150260,-0.02354001930439191
150261,-0.02335532581010586
150262,-0.023604949720114315
150263,-0.0236926070077736
150264,-0.023655812412737086
150265,-0.023896057403778054
150266,-0.024594065879450712
150267,-0.025463419896440027
150268,-0.02589376826673263
150269,-0.025981424992661973
150270,-0.0262404276343946
150271,-0.026184875388666432
150272,-0.026203633788340543
150273,-0.026388325784661687
150274,-0.026184875201413917
150275,-0.026300669526854427
150276,-0.026540913488043372
150277,-0.027451750997818405
150278,-0.028159137924345667
150279,-0.028825041826200094
150280,-0.02848776278184746
150281,-0.02838134765625
150282,-0.029120837471414883
150283,-0.029925259481113638
150284,-0.030767201286035207
150285,-0.030970651775656718
150286,-0.030975341796875
150287,-0.031072376973658947
150288,-0.03127582746328506
150289,-0.032440977780822354
150290,-0.032944913843236875
150291,-0.033555265312115216
150292,-0.033416748046875
150293,-0.033416748046875
150294,-0.0337125432239585
150295,-0.034563136875214326
150296,-0.03528928463558796
150297,-0.03569618561484019
150298,-0.036149258797388624
150299,-0.036856645068545885
150300,-0.037670447027050344
150301,-0.037859825861439655
150302,-0.03841066691078287
150303,-0.038299560546875
150304,-0.03810080064020171
150305,-0.03818845399572382
150306,-0.03844745776092552
150307,-0.038299560546875
150308,-0.03839659506830275
150309,-0.03860004555792887
150310,-0.03817907208084493
150311,-0.038604736328125
150312,-0.038604736328125
150313,-0.03825338881169627
150314,-0.03814697265625
150315,-0.03844276652261191
150316,-0.03823931593936414
150317,-0.03835511419694182
150318,-0.038299560546875
150319,-0.03828548730005624
150320,-0.038313633887315415
150321,-0.03814697265625
150322,-0.03814697265625
150323,-0.03814697265625
150324,-0.03829486930856599
150325,-0.03684800061843751
150326,-0.03621888400906138
150327,-0.035719640402055816
150328,-0.035904325563940846
150329,-0.035816674455366085
150330,-0.03585346287131807
150331,-0.035932474210904064
150332,-0.03491522176277349
150333,-0.03404586568608934
150334,-0.03393475744972994
150335,-0.03343082279165407
150336,-0.03296836760060048
150337,-0.0335693359375
150338,-0.033375268767105226
150339,-0.033559952524647
150340,-0.033416748046875
150341,-0.03351378153845073
150342,-0.03312564766576946
150343,-0.032163949616688156
150344,-0.03144718105613777
150345,-0.03098472558421462
150346,-0.031035588276837393
150347,-0.03082275390625
150348,-0.031118545712917067
150349,-0.03077658329454035
150350,-0.030767199226335765
150351,-0.031266441335371827
150352,-0.03082275390625
150353,-0.030143522086658464
150354,-0.02960674295578938
150355,-0.02874677047920153
150356,-0.028533935546875
150357,-0.028681831169338964
150358,-0.02858010587771508
150359,-0.0286865234375
150360,-0.0286865234375
150361,-0.028580105784093424
150362,-0.028492457765060927
150363,-0.028825033961911953
150364,-0.028533935546875
150365,-0.028630968289471204
150366,-0.028538628095901006
150367,-0.02842751770622511
150368,-0.027757674355065202
150369,-0.02686954667794298
150370,-0.026457953056043093
150371,-0.025954019521436295
150372,-0.026083143824336366
150373,-0.025893771543518202
150374,-0.02539922366869335
150375,-0.02414173652798681
150376,-0.024169135071154715
150377,-0.023762234091902486
150378,-0.023651123046875
150379,-0.023665201911048348
150380,-0.022763753618715007
150381,-0.021543050680958322
150382,-0.021528971723163315
150383,-0.020336427169104918
150384,-0.019244846661792173
150385,-0.018828559461018857
150386,-0.017742433871074822
150387,-0.016946642268139397
150388,-0.016248645214405423
150389,-0.015425456753514909
150390,-0.014371421506773131
150391,-0.013853408733529369
150392,-0.013136638675018682
150393,-0.012082603709155678
150394,-0.01147225233389899
150395,-0.01054264481525865
150396,-0.009636504535633845
150397,-0.008864178205626964
150398,-0.008059763311247699
150399,-0.0068946165513655506
150400,-0.0070010356091061736
150401,-0.005770945419980979
150402,-0.004753692971850406
150403,-0.004240373122100866
150404,-0.003232508112609722
150405,-0.002455487548364017
150406,-0.0017989672466058977
150407,-0.0007911024243396587
150408,0.00013381245165301943
150409,0.0005039324111331195
150410,0.0006103515625
150411,0.0010540333742810463
150412,0.00212214851503439
150413,0.002829531228550312
150414,0.0033475454997773852
150415,0.004609723036184229
150416,0.005326493843672766
150417,0.006084739062549739
150418,0.007097297370067747
150419,0.007823456646029328
150420,0.007786676656109221
150421,0.008332082823283786
150422,0.009224138621376056
150423,0.010056717797682368
150424,0.010301642136976187
150425,0.011512956325399464
150426,0.012493429345339866
150427,0.01425484346706365
150428,0.015300262724924392
150429,0.01585505707970243
150430,0.017001424749303586
150431,0.018434967300515626
150432,0.019655670238272315
150433,0.02032627352360267
150434,0.021334136660660693
150435,0.021963266845305793
150436,0.022874099393087034
150437,0.023775542348930756
150438,0.024700459097374963
150439,0.025315505362222067
150440,0.02621694803720082
150441,0.026993971971853752
150442,0.027391483078303493
150443,0.028505765834818272
150444,0.02928279005034998
150445,0.02984697390344388
150446,0.030059814453125
150447,0.03050349289448501
150448,0.031206179407688925
150449,0.0319323414923278
150450,0.03248713519175842
150451,0.03263972298876219
150452,0.03354116454028107
150453,0.03446608222494184
150454,0.03488237373234815
150455,0.03499818490982481
150456,0.034942626953125
150457,0.03518754932634564
150458,0.03598256966679359
150459,0.03675959528665014
150460,0.03743020035080116
150461,0.037439591347072726
150462,0.037384033203125
150463,0.037582788147804504
150464,0.038465446208819955
150465,0.03905780436143173
150466,0.03950617666254855
150467,0.039631380334257074
150468,0.039816047988745155
150469,0.0396728515625
150470,0.0396728515625
150471,0.03982074362730882
150472,0.040985888233869866
150473,0.04168387732968024
150474,0.041961669921875
150475,0.041961669921875
150476,0.041961669921875
150477,0.04181377804430949
150478,0.042405345460949866
150479,0.043015696929828214
150480,0.04392183196659426
150481,0.04435690967955504
150482,0.04434751737257108
150483,0.044403076171875
150484,0.044708251953125
150485,0.04451419395773536
150486,0.04484675096196281
150487,0.045928955078125
150488,0.046511128502564
150489,0.04669659091880072
150490,0.04690473788959921
150491,0.04678892334170151
150492,0.04669659101242237
150493,0.0469970703125
150494,0.0469970703125
150495,0.04729285294416194
150496,0.04712147856708989
150497,0.04805109563523579
150498,0.04910512077072827
150499,0.049285888671875
150500,0.04918886014229306
150501,0.04972486529558222
150502,0.05073742098167085
150503,0.05146358812192057
150504,0.0518704891011728
150505,0.05180553574793757
150506,0.05282278819606814
150507,0.05339636782017949
150508,0.05429310717954515
150509,0.05541678186856185
150510,0.05599036177355197
150511,0.056535759421073
150512,0.05765004002429429
150513,0.058427070699775485
150514,0.05908358763112177
150515,0.05999441765109529
150516,0.06086377943875569
150517,0.06132624024716386
150518,0.061548479844652594
150519,0.061788701055572035
150520,0.061585250472324264
150521,0.06247729082270523
150522,0.06330988235718059
150523,0.06382790346284838
150524,0.063934326171875
150525,0.0637864357922744
150526,0.0640869140625
150527,0.06389285868854433
150528,0.06378173828125
150529,0.06392023326431519
150530,0.06414247435976882
150531,0.06379113367778542
150532,0.06414717215165819
150533,0.06412838117134403
150534,0.064239501953125
150535,0.06410100753177594
150536,0.06387876568736287
150537,0.063934326171875
150538,0.0640869140625
150539,0.0640869140625
150540,0.06379113423951535
150541,0.06428566657299344
150542,0.06439208984375
150543,0.063948420390138
150544,0.063934326171875
150545,0.0640313532971229
150546,0.0640869140625
150547,0.06413307849512513
150548,0.06404544788987251
150549,0.06408221580249775
150550,0.06401255997624433
150551,0.06512683936237489
150552,0.06575598415212719
150553,0.0664218966672522
150554,0.0665283203125
150555,0.0665283203125
150556,0.06654241574785834
150557,0.06632017128200667
150558,0.06652362177163279
150559,0.06669500391934831
150560,0.06647275907901001
150561,0.0665283203125
150562,0.06642189638638264
150563,0.06643129374899125
150564,0.06652362158438486
150565,0.06646806016364697
150566,0.066680908203125
150567,0.06682879727201321
150568,0.06657448408976432
150569,0.06658388182685955
150570,0.06667620928776656
150571,0.06674116872646466
150572,0.0665283203125
150573,0.06638043143085509
150574,0.06663474461310398
150575,0.06662534650151752
150576,0.06638513062708772
150577,0.06646805941466452
150578,0.06658388210772913
150579,0.0665283203125
150580,0.06632956901910189
150581,0.0656409885206047
150582,0.06501183998594934
150583,0.06404075075334856
150584,0.06403135208002757
150585,0.06393902555534632
150586,0.063934326171875
150587,0.0638373003573441
150588,0.06378173828125
150589,0.06272772157178941
150590,0.06202034438200641
150591,0.06150231906331348
150592,0.06138649505953188
150593,0.061492919921875
150594,0.06164080814815911
150595,0.06169167074716022
150596,0.06160404463580233
150597,0.061492919921875
150598,0.060087565432720744
150599,0.05946781435429564
150600,0.0592088014140842
150601,0.05925026430991691
150602,0.05945371479953842
150603,0.059213501452920925
150604,0.05900535101808435
150605,0.05899595103404177
150606,0.059051513671875
150607,0.059005351111706
150608,0.058316774826229344
150609,0.05739184740481511
150610,0.057128134051280324
150611,0.056915283203125
150612,0.056915283203125
150613,0.056975546347898635
150614,0.0566656703405732
150615,0.05690588256372162
150616,0.05682295864452615
150617,0.05670713230017554
150618,0.056910582789801656
150619,0.0567626953125
150620,0.0567626953125
150621,0.0567626953125
150622,0.056716533220439284
150623,0.05690118149506049
150624,0.05662420922356117
150625,0.05639725563750311
150626,0.05680415661675534
150627,0.05661950881024243
150628,0.056610107421875
150629,0.056707131925688915
150630,0.05661480820968497
150631,0.056915283203125
150632,0.056915283203125
150633,0.056915283203125
150634,0.056716533594930514
150635,0.05680415605501621
150636,0.05661950937198157
150637,0.05653188719276084
150638,0.05561165896757921
150639,0.05479785700907475
150640,0.054367450592826175
150641,0.054182804565156936
150642,0.054164000009573804
150643,0.05448798053365025
150644,0.054168701171875
150645,0.0538729279024707
150646,0.05403021714264022
150647,0.05341986567376187
150648,0.05251374112272254
150649,0.05197220531141321
150650,0.05189398704837684
150651,0.051727294921875
150652,0.05177345607770995
150653,0.05197690656733606
150654,0.051736697995459845
150655,0.05046043073466631
150656,0.05006293292262058
150657,0.049452581453742234
150658,0.049498742515950926
150659,0.049285888671875
150660,0.04899011633869647
150661,0.04788054204701348
150662,0.04735781051040851
150663,0.04671070180187956
150664,0.04669189453125
150665,0.046885941291939674
150666,0.046701298353808096
150667,0.045439136546005135
150668,0.04491640444765642
150669,0.04471295395803031
150670,0.04444923676597081
150671,0.04436161767630615
150672,0.04454625986544608
150673,0.04450950356202585
150674,0.04391796067449866
150675,0.042752822527891705
150676,0.0422206852962725
150677,0.0421142578125
150678,0.0421142578125
150679,0.0421142578125
150680,0.04221128072473196
150681,0.04197107468066806
150682,0.04217452526391583
150683,0.0420586927404807
150684,0.04167060155967956
150685,0.04118078536811951
150686,0.04024174556565691
150687,0.03998272991038984
150688,0.03983954724666618
150689,0.039520263671875
150690,0.0396681489022385
150691,0.03977927951438538
150692,0.03957582902475927
150693,0.03981603394535869
150694,0.039733119762898284
150695,0.03961728611598947
150696,0.03952496651938441
150697,0.039520263671875
150698,0.03961728602236782
150699,0.0396728515625
150700,0.039658742645485134
150701,0.03997802734375
150702,0.04012591219962228
150703,0.040833285925371776
150704,0.04143423123112301
150705,0.04180437890288008
150706,0.042068098341868664
150707,0.041961669921875
150708,0.041813785253246034
150709,0.041961669921875
150710,0.041961669921875
150711,0.041961669921875
150712,0.041961669921875
150713,0.041864648039490464
150714,0.0424006199567926
150715,0.04188729008943382
150716,0.04232241180498712
150717,0.042266845703125
150718,0.04222068660698489
150719,0.04192021442221756
150720,0.04210485061952547
150721,0.041855241033763854
150722,0.041961669921875
150723,0.04181378572135892
150724,0.042220686794232805
150725,0.04192021479671338
150726,0.04180908203125
150727,0.042007828737145536
150728,0.0421142578125
150729,0.04181848978595446
150730,0.041943734651582826
150731,0.04100468782745001
150732,0.04015413508924444
150733,0.039779280825102376
150734,0.0396728515625
150735,0.039524967736475146
150736,0.03958053449369806
150737,0.03965873918145625
150738,0.0395296719883186
150739,0.03878554935532413
150740,0.03785590953690872
150741,0.037393441706811914
150742,0.037490462746592346
150743,0.037772116987760083
150744,0.03755073413014534
150745,0.037504575970231
150746,0.03669077401174495
150747,0.03602485550477412
150748,0.03514137300365974
150749,0.035247802734375
150750,0.03509991937646303
150751,0.03509521484375
150752,0.0349981941784608
150753,0.034646860424544366
150754,0.03390273966400142
150755,0.032973098441247364
150756,0.03265851331370634
150757,0.03291282649595523
150758,0.032612355528283225
150759,0.032353337626078
150760,0.0313087466468639
150761,0.030379104862366106
150762,0.030360285327170746
150763,0.029967499069531278
150764,0.029269537217885125
150765,0.028252284769754554
150766,0.02769279599349898
150767,0.026869583939721043
150768,0.025963466878487832
150769,0.02540397810223226
150770,0.02525990658609365
150771,0.025334295031819224
150772,0.025144960200022434
150773,0.02433115824153638
150774,0.02351735628303192
150775,0.023040771484375
150776,0.0228467316517615
150777,0.023031360733740725
150778,0.022490693365132045
150779,0.021695713095139443
150780,0.020770775000755172
150781,0.020719912495375713
150782,0.020391209182188435
150783,0.02029889501568545
150784,0.020340346489565665
150785,0.02034975770830822
150786,0.020442071687563294
150787,0.02024803251031059
150788,0.01936544522797582
150789,0.01832936987423345
150790,0.018111802135177647
150791,0.01800537109375
150792,0.017709606999350834
150793,0.017852783203125
150794,0.017755763848548187
150795,0.017848077266077927
150796,0.017774587783979792
150797,0.016854354596804375
150798,0.016188434498256188
150799,0.015624239597719433
150800,0.015411376953125
150801,0.015411376953125
150802,0.015517808369043873
150803,0.015411376953125
150804,0.015263495280416643
150805,0.015166476300331057
150806,0.01446851838082207
150807,0.013747029090864898
150808,0.013168714881212816
150809,0.013275146484375
150810,0.013127264998909956
150811,0.012845621430703046
150812,0.011915974871486984
150813,0.011453504794447426
150814,0.010894015924570198
150815,0.01068115234375
150816,0.01068115234375
150817,0.010496528317377019
150818,0.00939167054208948
150819,0.008706923137684052
150820,0.008406454136085232
150821,0.008087158203125
150822,0.007495633759229727
150823,0.006727987620075201
150824,0.006311672987898953
150825,0.005664579446216351
150826,0.005720149105756624
150827,0.00479991498235084
150828,0.003690351176394573
150829,0.0032966569673290383
150830,0.0033154850221687325
150831,0.002760703212812255
150832,0.001997763853308911
150833,0.0011933761094676117
150834,0.0010634080802325923
150835,0.000457763671875
150836,-2.732654742410777e-05
150837,-0.0008966983526937447
150838,-0.0014656017180991016
150839,-0.0017754847471085637
150840,-0.0021268157859693567
150841,-0.002885047804082379
150842,-0.0033013635597369077
150843,-0.004096335871815111
150844,-0.003907007593603274
150845,-0.004022855283884749
150846,-0.004115165518241366
150847,-0.004378893757757519
150848,-0.005048602292448763
150849,-0.00593680486760913
150850,-0.006288135531983299
150851,-0.0067138671875
150852,-0.006565987012756548
150853,-0.006515124413755433
150854,-0.00640869140625
150855,-0.006556571487371796
150856,-0.006561279296875
150857,-0.006658296685374025
150858,-0.00612234723749944
150859,-0.006515124600998745
150860,-0.0065057087011273695
150861,-0.006709159190753484
150862,-0.006547155213013796
150863,-0.007545575486914992
150864,-0.008526089513527312
150865,-0.00859107638362834
150866,-0.00889154398088391
150867,-0.009002685546875
150868,-0.00885009765625
150869,-0.009141148698273397
150870,-0.009012102102107173
150871,-0.009141148511030086
150872,-0.01004255074106686
150873,-0.010819615120661773
150874,-0.011138916015625
150875,-0.011332949669163178
150876,-0.011444091796875
150877,-0.011642833821646319
150878,-0.011458217378696508
150879,-0.011439383238393946
150880,-0.011490245837395061
150881,-0.011305629768936475
150882,-0.011286795254147289
150883,-0.011476119693843616
150884,-0.012483954744147112
150885,-0.013113141102301266
150886,-0.013718783825455244
150887,-0.013941069485222137
150888,-0.014033377098153978
150889,-0.013991932177844908
150890,-0.013982514405531207
150891,-0.01389020697984728
150892,-0.013977805378932668
150893,-0.014772771418304693
150894,-0.015845595492030316
150895,-0.016160189232846536
150896,-0.016770540701724877
150897,-0.01649361954814678
150898,-0.016387185229928956
150899,-0.01617431640625
150900,-0.016765831113401006
150901,-0.017625786457069328
150902,-0.018351990952704962
150903,-0.01875889193195719
150904,-0.018676003963790582
150905,-0.018657166546702447
150906,-0.018472553567795324
150907,-0.018952923338538808
150908,-0.0196697095001262
150909,-0.020723696156759088
150910,-0.021376433265242113
150911,-0.02105712890625
150912,-0.021500763813139576
150913,-0.021209716796875
150914,-0.021209716796875
150915,-0.02150547321422474
150916,-0.021255869713925984
150917,-0.0212652891714479
150918,-0.021505473026972224
150919,-0.021209716796875
150920,-0.02111270137444916
150921,-0.02135288494910391
150922,-0.021209716796875
150923,-0.02140374745448337
150924,-0.0213670146503197
150925,-0.02134817470541924
150926,-0.021861510939115057
150927,-0.0230078010892855
150928,-0.023651123046875
150929,-0.023845153329996743
150930,-0.023660543347001028
150931,-0.0237575584885665
150932,-0.023748138094809614
150933,-0.024099466231371457
150934,-0.02495000005780922
150935,-0.025482177734375
150936,-0.02592581039431722
150937,-0.026046377035184812
150938,-0.02593994140625
150939,-0.026087818865942417
150940,-0.026018114355967657
150941,-0.026259248667541063
150942,-0.02653616139508728
150943,-0.027497840719662502
150944,-0.028117613331261778
150945,-0.028376637038069502
150946,-0.028427499637070617
150947,-0.028727964706518463
150948,-0.028543356970479307
150949,-0.02848778365967604
150950,-0.02867239111485023
150951,-0.028395480072521427
150952,-0.028519803036981917
150953,-0.02874209693554658
150954,-0.028538646445920465
150955,-0.02838134765625
150956,-0.028575376254163527
150957,-0.028390769641593448
150958,-0.02864037183117061
150959,-0.028436921341544494
150960,-0.02882497806925824
150961,-0.0286865234375
150962,-0.0286865234375
150963,-0.029278030280358264
150964,-0.029939244348237724
150965,-0.030753046306742183
150966,-0.03067958856268918
150967,-0.031021493122344024
150968,-0.0311279296875
150969,-0.030832176640557492
150970,-0.03056372935684277
150971,-0.030573152184781117
150972,-0.030813330984689993
150973,-0.031067644073317222
150974,-0.031183503840902776
150975,-0.03068430067882998
150976,-0.029555899736650546
150977,-0.029061408316222722
150978,-0.028839111328125
150979,-0.0286865234375
150980,-0.0286865234375
150981,-0.028390771139539944
150982,-0.02838134765625
150983,-0.028575374568964515
150984,-0.0286865234375
150985,-0.028640372673770117
150986,-0.028339908821413
150987,-0.028672387650821342
150988,-0.028487784876766772
150989,-0.02867238746357803
150990,-0.028395483723793625
150991,-0.028533935546875
150992,-0.028630948722362687
150993,-0.028242896114033595
150994,-0.027433806271665334
150995,-0.026522991231294844
150996,-0.0262451171875
150997,-0.026092529296875
150998,-0.025898503320395453
150999,-0.026083104690106777
151000,-0.026138679592492
151001,-0.026148104292881884
151002,-0.026388280284113462
151003,-0.026138679498870346
151004,-0.02605109158550708
151005,-0.026087816806247575
151006,-0.02621310464463024
151007,-0.025108264564001365
151008,-0.02427561236212224
151009,-0.024261474609375
151010,-0.02397043676812936
151011,-0.02365583572475034
151012,-0.0238037109375
151013,-0.02370669841737311
151014,-0.023651123046875
151015,-0.02360497321937088
151016,-0.022819448170713356
151017,-0.02169104479434325
151018,-0.021529031267102608
151019,-0.02130672912975858
151020,-0.0213623046875
151021,-0.021376443657342575
151022,-0.021251153384773847
151023,-0.0213623046875
151024,-0.0208122419223559
151025,-0.02040534094310367
151026,-0.019554815729941104
151027,-0.0189208984375
151028,-0.018823886385485992
151029,-0.018620435895859877
151030,-0.0189208984375
151031,-0.019017910395892353
151032,-0.01848198809855113
151033,-0.01854129320384791
151034,-0.019073486328125
151035,-0.018925611864353188
151036,-0.020173610360448298
151037,-0.020890400547808316
151038,-0.020761380165958892
151039,-0.020844251282043338
151040,-0.02134816393881835
151041,-0.021514892578125
151042,-0.021028847034400073
151043,-0.02224954997215676
151044,-0.02273088199540224
151045,-0.023651123046875
151046,-0.023651123046875
151047,-0.023798997136160186
151048,-0.0238037109375
151049,-0.023706699540842185
151050,-0.02379899704253393
151051,-0.02363698126835513
151052,-0.02453836664634195
151053,-0.02546332178002409
151054,-0.025879650736451775
151055,-0.0259955180874605
151056,-0.026087815214665615
151057,-0.02593994140625
151058,-0.026036952522042845
151059,-0.02624040301166896
151060,-0.026092529296875
151061,-0.02580149623036143
151062,-0.026669880973206134
151063,-0.027437534508512905
151064,-0.028270193732089863
151065,-0.02823347412870395
151066,-0.028640375201577837
151067,-0.028630946381798274
151068,-0.028390776569651218
151069,-0.028533935546875
151070,-0.028533935546875
151071,-0.028533935546875
151072,-0.02851979180228655
151073,-0.02932416456652482
151074,-0.030341417014655394
151075,-0.030716313970682193
151076,-0.03082275390625
151077,-0.030970627059304822
151078,-0.030808609599917807
151079,-0.0309339087666359
151080,-0.03082275390625
151081,-0.030975341796875
151082,-0.03116936253049579
151083,-0.03039327978325595
151084,-0.029676488191561885
151085,-0.029047276836186263
151086,-0.02840020772999059
151087,-0.028580083127440967
151088,-0.02858951325793292
151089,-0.028829681104002188
151090,-0.028501933489741164
151091,-0.027688131531236705
151092,-0.02672645688779031
151093,-0.026457998182113893
151094,-0.0262451171875
151095,-0.025505754230898587
151096,-0.02473338427278581
151097,-0.024123032803907464
151098,-0.023069063841933243
151099,-0.022153536685426554
151100,-0.021514892578125
151101,-0.021514892578125
151102,-0.021117422571978035
151103,-0.02051650216982661
151104,-0.01985057252177286
151105,-0.01922607421875
151106,-0.019032054983094116
151107,-0.018329409570183777
151108,-0.017409166646259487
151109,-0.016798815177381143
151110,-0.0163363358317102
151111,-0.01626661006941703
151112,-0.01638248275691537
151113,-0.015587544148946279
151114,-0.014815173067364424
151115,-0.014301830935458257
151116,-0.014042801892165514
151117,-0.014098380539453798
151118,-0.013885498046875
151119,-0.01403336988921283
151120,-0.013839351496161055
151121,-0.01363590100653494
151122,-0.013876065763057348
151123,-0.013779056613342288
151124,-0.013885498046875
151125,-0.013737626391780482
151126,-0.012466060667779368
151127,-0.011874574328266264
151128,-0.01144880812603174
151129,-0.011490238066720766
151130,-0.0115966796875
151131,-0.011892422623202411
151132,-0.01139794562064768
151133,-0.011388512681478434
151134,-0.011444091796875
151135,-0.011476088236672658
151136,-0.011319803379109327
151137,-0.011429941966823681
151138,-0.0115966796875
151139,-0.011499671099514877
151140,-0.01203557654481995
151141,-0.012849378503324408
151142,-0.01346916347309273
151143,-0.014023935545704939
151144,-0.013945794334027812
151145,-0.013926926957724418
151146,-0.013890214937761677
151147,-0.013977789463103876
151148,-0.01486973197793387
151149,-0.015554530874733335
151150,-0.015854989577853345
151151,-0.016271324619743895
151152,-0.016326904296875
151153,-0.016419195338617253
151154,-0.016147039478763798
151155,-0.016460623500475013
151156,-0.01643334676025513
151157,-0.016326904296875
151158,-0.0164747749221221
151159,-0.0164794921875
151160,-0.016285476322251347
151161,-0.016617928001126325
151162,-0.01617431640625
151163,-0.01636833208425534
151164,-0.016035880873488645
151165,-0.0164936446389853
151166,-0.01617431640625
151167,-0.016470057095014257
151168,-0.016419194402382285
151169,-0.016244049471105974
151170,-0.01631746901713674
151171,-0.01638720226923603
151172,-0.016271323964383102
151173,-0.016326904296875
151174,-0.01612817154073967
151175,-0.016118735980136443
151176,-0.016322186469762558
151177,-0.016433347415611328
151178,-0.016423911667764787
151179,-0.0164794921875
151180,-0.016419193653409034
151181,-0.016438065523597938
151182,-0.016622644049404292
151183,-0.01658593549348424
151184,-0.016285477820216252
151185,-0.016470055971535977
151186,-0.016280759805855895
151187,-0.015980302226209563
151188,-0.01601701031402133
151189,-0.01617431640625
151190,-0.01617431640625
151191,-0.016322186001649676
151192,-0.016160161426952376
151193,-0.016576499090276905
151194,-0.016040602071031324
151195,-0.0149677685414264
151196,-0.014163403454246758
151197,-0.013885498046875
151198,-0.013991941820972123
151199,-0.013788491331346008
151200,-0.013880779470780107
151201,-0.014006097736500115
151202,-0.013095289156088319
151203,-0.012225905928866196
151204,-0.011564691860986739
151205,-0.011138916015625
151206,-0.010991046888338206
151207,-0.010283688891174182
151208,-0.009488762173293466
151209,-0.008859535370178926
151210,-0.00776415200886844
151211,-0.006825030286674468
151212,-0.0064181293074222386
151213,-0.006774167781295009
151214,-0.006367266802036929
151215,-0.0064039723620468265
151216,-0.005049557616856177
151217,-0.004536212301776889
151218,-0.003981442569724489
151219,-0.0038288547727211453
151220,-0.0030244911834880024
151221,-0.0023029760537282627
151222,-0.0019978003660999187
151223,-0.0015814608303238583
151224,-0.001969484602906769
151225,-0.001600338317858145
151226,-0.0006800917426570576
151227,0.0004294471597086015
151228,0.0006564947428067149
151229,0.0008599452324328295
151230,0.0012112641003678884
151231,0.0008552256264951175
151232,0.001068115234375
151233,0.0007723786650004239
151234,0.000716796460066199
151235,0.0006103515625
151236,0.001201824326744121
151237,0.0020617691846857244
151238,0.0026909996390632597
151239,0.002894450128689374
151240,0.003158202897309511
151241,0.003245768622133207
151242,0.0027654615784791278
151243,0.0030517578125
151244,0.002469725945330316
151245,0.0012490230075736285
151246,0.0010219726158028233
151247,0.00091552734375
151248,0.00091552734375
151249,0.0006564940874459188
151250,0.0005689292052309332
151251,0.0006056313948231481
151252,0.0006706545904764747
151253,0.0005547687022003772
151254,0.0009060868211529839
151255,0.0008090817908276065
151256,0.0008185224070462788
151257,0.0004672043817153284
151258,0.0008693850996690496
151259,0.0005689297669608698
151260,0.000605631113953578
151261,0.0006706551522156147
151262,-0.00012426482485984364
151263,-0.0007534983687888439
151264,-0.0014194330724580366
151265,-0.0014288742504158488
151266,-0.0018168927801307973
151267,-0.0017387707610772392
151268,-0.00171988803067499
151269,-0.0015353203650727806
151270,-0.0017387709483205514
151271,-0.0018168923120225168
151272,-0.0021315096457169536
151273,-0.0029772909110673327
151274,-0.0037035302343041625
151275,-0.003962564239590695
151276,-0.004119873046875
151277,-0.004022868765532075
151278,-0.00411515203659404
151279,-0.004180177760059692
151280,-0.00396728515625
151281,-0.004263018729694767
151282,-0.004212156037071996
151283,-0.004328044734025387
151284,-0.004568194323701455
151285,-0.005677729668407369
151286,-0.006103515625
151287,-0.006399248823948939
151288,-0.006515137989024416
151289,-0.006602699219953398
151290,-0.0067138671875
151291,-0.006561279296875
151292,-0.006561279296875
151293,-0.006857012121337315
151294,-0.00801268802491136
151295,-0.00883593303382516
151296,-0.009002685546875
151297,-0.008896238683235616
151298,-0.00919669279884846
151299,-0.009159995103132696
151300,-0.01062084631985292
151301,-0.010930743766740074
151302,-0.011134194256366189
151303,-0.011490232636617304
151304,-0.011499676248756582
151305,-0.011739823872364066
151306,-0.011504398195258704
151307,-0.011388507251371763
151308,-0.011444091796875
151309,-0.011628654406870966
151310,-0.012539459616875531
151311,-0.013556712065006105
151312,-0.013580322265625
151313,-0.013871331739246545
151314,-0.013446622910000148
151315,-0.0140380859375
151316,-0.014620104323013155
151317,-0.015692941597516535
151318,-0.016007561739888265
151319,-0.016423907267505537
151320,-0.016775223326763303
151321,-0.017792475868515532
151322,-0.01829637972477664
151323,-0.018758865717644988
151324,-0.01881445073126111
151325,-0.018726892870725553
151326,-0.018172126509098788
151327,-0.01884642311004926
151328,-0.019766672868418864
151329,-0.02013687896063708
151330,-0.02105712890625
151331,-0.02105712890625
151332,-0.021500724491671275
151333,-0.02105712890625
151334,-0.020960126403732345
151335,-0.02179173162473761
151336,-0.022767567052079534
151337,-0.023290361783896
151338,-0.023493812273522114
151339,-0.023544674872518625
151340,-0.02374812536214474
151341,-0.023655846023229146
151342,-0.023651123046875
151343,-0.023845127490171168
151344,-0.023660569186826602
151345,-0.023910159299099686
151346,-0.02390071306552643
151347,-0.023660569374069913
151348,-0.023651123046875
151349,-0.023845127115684542
151350,-0.02351270492790734
151351,-0.023544674498032003
151352,-0.023748124987653513
151353,-0.02365584639772037
151354,-0.0238037109375
151355,-0.023706709090343142
151356,-0.023798987493032973
151357,-0.02383205179154548
151358,-0.022805352360859194
151359,-0.021843686049818418
151360,-0.02157520234692514
151361,-0.02116830136767291
151362,-0.02120499316516466
151363,-0.021103267873540776
151364,-0.02130671836316689
151365,-0.0213623046875
151366,-0.02122388806650645
151367,-0.020516535124962473
151368,-0.019554869094791268
151369,-0.01866186143629286
151370,-0.01905931468400693
151371,-0.01863461830656964
151372,-0.01763626160238036
151373,-0.01678466796875
151374,-0.016636804084326565
151375,-0.01622045499904955
151376,-0.016423905488675665
151377,-0.015444445651887554
151378,-0.014875508675985536
151379,-0.014246260620575595
151380,-0.01404281013094948
151381,-0.0140380859375
151382,-0.01394108493294725
151383,-0.013737634443321135
151384,-0.01377904846818137
151385,-0.013885498046875
151386,-0.013885498046875
151387,-0.012739279611560378
151388,-0.011916028798057882
151389,-0.011749267578125
151390,-0.011656991328742464
151391,-0.011444091796875
151392,-0.011444091796875
151393,-0.011490229827940011
151394,-0.0115966796875
151395,-0.01130095322936552
151396,-0.011444091796875
151397,-0.011444091796875
151398,-0.011296228661429417
151399,-0.011490229640696698
151400,-0.011402678801854374
151401,-0.011439366948073928
151402,-0.011429917156850126
151403,-0.012234269324130784
151404,-0.013103658824059086
151405,-0.013626459922198785
151406,-0.013926910667399798
151407,-0.0140380859375
151408,-0.015198476297779257
151409,-0.015896377762891215
151410,-0.01617431640625
151411,-0.016419179235535944
151412,-0.017408080624777694
151413,-0.017852783203125
151414,-0.018661860031958816
151415,-0.018477310622745206
151416,-0.018754134596133135
151417,-0.01882862387332568
151418,-0.01890672229950102
151419,-0.019369211288294576
151420,-0.020233875939421803
151421,-0.020737776706136052
151422,-0.021348128175014393
151423,-0.02127003049782151
151424,-0.02096012921240964
151425,-0.02120026560130795
151426,-0.02131616768628241
151427,-0.02140371599731241
151428,-0.02107130598046554
151429,-0.02130199061206687
151430,-0.021223894058333855
151431,-0.021648577328624245
151432,-0.021103265720219675
151433,-0.02130671620984579
151434,-0.021214442675528095
151435,-0.02111744335617896
151436,-0.02041954441887933
151437,-0.019402291970748754
151438,-0.018949254458391816
151439,-0.017728551520635127
151440,-0.01680357223233563
151441,-0.01655398530322646
151442,-0.01563373198720171
151443,-0.014524206566483379
151444,-0.013839361607391949
151445,-0.013150915925372613
151446,-0.011930212987615926
151447,-0.010280104084093473
151448,-0.008517690822585458
151449,-0.007056853742877815
151450,-0.005475386078104036
151451,-0.0046332257581387475
151452,-0.003690468017325798
151453,-0.0025159012381825918
151454,-0.001304651274822826
151455,-2.8359204055734594e-05
151456,0.002047555316809604
151457,0.003578160569825581
151458,0.005298036523155077
151459,0.007082954958424542
151460,0.008710558875433459
151461,0.010338162792442375
151462,0.011933811089100646
151463,0.012650614570860079
151464,0.013260966039738423
151465,0.014513624316980788
151466,0.015937777744363592
151467,0.017657653135995363
151468,0.019183531761380396
151469,0.020820589589032476
151470,0.021949021239412152
151471,0.022920138090640772
151472,0.024024934636785407
151473,0.024857644884643516
151474,0.02626288992905101
151475,0.02749304715191701
151476,0.027475274691230966
151477,0.027710679022396264
151478,0.027923583984375
151479,0.027923583984375
151480,0.027923583984375
151481,0.02782658606935991
151482,0.02747527506571759
151483,0.02766454342551732
151484,0.02777099609375
151485,0.027327414832580162
151486,0.026213164563060755
151487,0.025787353515625
151488,0.02519591220855184
151489,0.025191184738316785
151490,0.02458083326943844
151491,0.023526901101120195
151492,0.023054954550431755
151493,0.022929590784172726
151494,0.022892911344850022
151495,0.023101089679197814
151496,0.022985181040652208
151497,0.023040771484375
151498,0.023026587856574503
151499,0.023830934032004748
151500,0.02470032652785826
151501,0.024978279401846822
151502,0.02516281795083788
151503,0.025625309561060815
151504,0.026582243346251092
151505,0.027105053806657637
151506,0.028195662886486263
151507,0.029374959476424333
151508,0.03058620606937687
151509,0.03201035949675967
151510,0.032227994550402844
151511,0.03323579046645834
151512,0.03490007213757254
151513,0.03606045566340648
151514,0.03703745154217387
151515,0.037813426436235094
151516,0.038927675675907075
151517,0.040254832311748465
151518,0.041771254030590205
151519,0.043338538254811404
151520,0.04488805966147377
151521,0.04649674929728783
151522,0.04817521581329786
151523,0.0497152804070386
151524,0.05078812414147306
151525,0.05171310876626218
151526,0.05261444976715605
151527,0.053835152704912737
151528,0.055513619314544425
151529,0.05644333300115056
151530,0.0563143893897724
151531,0.05700755065197983
151532,0.057705440601517645
151533,0.058574834127218575
151534,0.059051513671875
151535,0.05924550613148875
151536,0.059060971795509024
151537,0.0593105559159455
151538,0.05901010929013877
151539,0.05919464325161346
151540,0.05911183467538431
151541,0.058219953483337285
151542,0.05723937598063471
151543,0.05657816191275525
151544,0.05566736400531348
151545,0.05524154574893658
151546,0.054076434659245935
151547,0.053378546114046764
151548,0.05221343521159943
151549,0.050733689655285616
151550,0.050007424492246225
151551,0.04930480679161298
151552,0.047880653270608524
151553,0.0465818729717654
151554,0.044898676832163545
151555,0.04351592675667762
151556,0.042489214967822285
151557,0.041971129356221416
151558,0.04057062451470465
151559,0.03934046204897989
151560,0.03758391920169863
151561,0.036404619334974984
151562,0.0346800200307587
151563,0.032996823610368965
151564,0.03132308699878005
151565,0.02958902788572613
151566,0.028109281861299438
151567,0.02628768745074996
151568,0.024747618643993285
151569,0.02278762671143376
151570,0.02174199371331659
151571,0.02014277062715924
151572,0.018496246062627623
151573,0.016628519612849745
151574,0.014788004742020877
151575,0.01316040082501196
151576,0.011731517118753625
151577,0.010113373853191058
151578,0.00857803448273802
151579,0.00674224960994733
151580,0.005133567370317737
151581,0.003690492171933954
151582,0.0018133055388318108
151583,0.00038915211144900836
151584,-0.0016264306393245335
151585,-0.003175962157217797
151586,-0.004493659733199399
151587,-0.006657099346712345
151588,-0.009158829221646434
151589,-0.011290328662510838
151590,-0.01338042690474771
151591,-0.015123948354456199
151592,-0.016742090683793003
151593,-0.01842528804044992
151594,-0.019900304066833834
151595,-0.021527907983842753
151596,-0.023746939726277505
151597,-0.026387065157148455
151598,-0.028546950203619505
151599,-0.030470267846098027
151600,-0.0323202464579155
151601,-0.033831931906008285
151602,-0.03625441338909591
151603,-0.038349243127331255
151604,-0.040684192589704286
151605,-0.043273455140704555
151606,-0.04445275772249304
151607,-0.04610874921119559
151608,-0.04801314115051756
151609,-0.049456219812939434
151610,-0.05117135490804962
151611,-0.05261443385133646
151612,-0.05453775074483253
151613,-0.05597136707059983
151614,-0.0577834955868442
151615,-0.05896279882398428
151616,-0.0600084405289891
151617,-0.06056319780923699
151618,-0.06184422671249678
151619,-0.06233865802724157
151620,-0.06300460377837203
151621,-0.0640123928600006
151622,-0.06473866476387748
151623,-0.06558913408438675
151624,-0.06662058195675694
151625,-0.06712447635713874
151626,-0.0675869718058864
151627,-0.06796193776173638
151628,-0.06833098340254753
151629,-0.06969954226678106
151630,-0.07008397243175556
151631,-0.06999644321973666
151632,-0.06973739807336722
151633,-0.07014429914624111
151634,-0.070037841796875
151635,-0.07077712049318062
151636,-0.07159565460304895
151637,-0.07221547046827671
151638,-0.07247451580188947
151639,-0.07232666015625
151640,-0.0724236531092713
151641,-0.07262710359889742
151642,-0.07287668434891285
151643,-0.07347757104695517
151644,-0.07414351754706347
151645,-0.07470773884916954
151646,-0.07501764706264838
151647,-0.0755168082818235
151648,-0.07635781011645491
151649,-0.07711247998409827
151650,-0.07750045057908353
151651,-0.07750045048546188
151652,-0.07820779453287029
151653,-0.07931730684643713
151654,-0.07974313867806461
151655,-0.07976206971769237
151656,-0.07979873399015493
151657,-0.08020090216268709
151658,-0.08089878031578579
151659,-0.08206388775419965
151660,-0.08213841485490939
151661,-0.082244873046875
151662,-0.082244873046875
151663,-0.08229100265191273
151664,-0.08249445314153885
151665,-0.08240219402508504
151666,-0.08219874353545892
151667,-0.08238326148750157
151668,-0.0826979035375433
151669,-0.08219874362908518
151670,-0.08218927717304093
151671,-0.08194916381529091
151672,-0.08088578194937052
151673,-0.08017843855732289
151674,-0.0798082001653296
151675,-0.08007671354656397
151676,-0.07974787073579762
151677,-0.07995132122542374
151678,-0.079803466796875
151679,-0.07970647506094904
151680,-0.07950302457132292
151681,-0.07850470634598403
151682,-0.0778754204670753
151683,-0.07781982421875
151684,-0.07733013263879225
151685,-0.0763223475829317
151686,-0.07598876953125
151687,-0.07524003140058416
151688,-0.07511463720698779
151689,-0.07507797602406749
151690,-0.07488872713776551
151691,-0.07388094245639157
151692,-0.07354736328125
151693,-0.07255378048406516
151694,-0.07153652803593459
151695,-0.07096283718825581
151696,-0.070343017578125
151697,-0.07014903522975136
151698,-0.06959428047731119
151699,-0.06878521263624378
151700,-0.06816539283886966
151701,-0.06746278450048487
151702,-0.0659782998647402
151703,-0.06566838987243148
151704,-0.06516923221091613
151705,-0.0638562725908963
151706,-0.06303300192940943
151707,-0.06257050395285406
151708,-0.06146099500972206
151709,-0.0607441838509132
151710,-0.060577392578125
151711,-0.06033254847335434
151712,-0.0594406939637324
151713,-0.05846010045157477
151714,-0.05790534626086914
151715,-0.05698508442519085
151716,-0.056023429255232994
151717,-0.05555619631863645
151718,-0.05543079744391126
151719,-0.055098432834004764
151720,-0.054090649931460705
151721,-0.05346135918417063
151722,-0.05325790869454451
151723,-0.0531005859375
151724,-0.0531005859375
151725,-0.05295273300691157
151726,-0.0531005859375
151727,-0.0531005859375
151728,-0.05324843877446678
151729,-0.05284153770159289
151730,-0.052947998046875
151731,-0.052947998046875
151732,-0.0532673793635863
151733,-0.052947998046875
151734,-0.053095850696593866
151735,-0.052947998046875
151736,-0.052947998046875
151737,-0.053243703159069414
151738,-0.05288766468519664
151739,-0.053197575800974436
151740,-0.05310532136564945
151741,-0.053253173828125
151742,-0.05315618405827222
151743,-0.0531005859375
151744,-0.053253173828125
151745,-0.053156184151893875
151746,-0.05324843821273224
151747,-0.05311479287729994
151748,-0.05240745182583054
151749,-0.0514457976857201
151750,-0.050857894468107095
151751,-0.05067338700180037
151752,-0.05080229597284365
151753,-0.050613052891139564
151754,-0.050603581192236555
151755,-0.050807031681862666
151756,-0.050307877203511216
151757,-0.049716469506925515
151758,-0.04884706895953595
151759,-0.048111312155992125
151760,-0.0482177734375
151761,-0.04792206982327049
151762,-0.04696515214116152
151763,-0.046442317526133016
151764,-0.045499608469041414
151765,-0.044431493421909725
151766,-0.04350175754676402
151767,-0.04289140607788567
151768,-0.04182329093713233
151769,-0.041115950541005315
151770,-0.04015429705625107
151771,-0.0393357587333714
151772,-0.038909912109375
151773,-0.03861420924411874
151774,-0.038054720374250714
151775,-0.03745384191499697
151776,-0.03678789129549438
151777,-0.036269791921372016
151778,-0.0360663414317459
151779,-0.03556718845135935
151780,-0.03460553524747468
151781,-0.03369474473621277
151782,-0.033416748046875
151783,-0.03321803429611533
151784,-0.03272361842908184
151785,-0.03176196541244048
151786,-0.031049888745559907
151787,-0.030129624662961874
151788,-0.02916797173994677
151789,-0.029005910090714716
151790,-0.028589535165612124
151791,-0.02838608467598601
151792,-0.028335222076984894
151793,-0.027646830696027684
151794,-0.026721829312805666
151795,-0.026152866216213103
151796,-0.02603692949089456
151797,-0.025944678613229324
151798,-0.025925729691690377
151799,-0.026148129196477094
151800,-0.02579682811683616
151801,-0.026198991889104465
151802,-0.02706240827084149
151803,-0.027618408203125
151804,-0.028626185956422755
151805,-0.029518025954549953
151806,-0.030202927368052215
151807,-0.030946916682538333
151808,-0.03187665648983501
151809,-0.03322625950452128
151810,-0.034502562622746175
151811,-0.03612069128320154
151812,-0.03795174568983657
151813,-0.03953796235798737
151814,-0.04125307835410025
151815,-0.04313973312845026
151816,-0.04449881046344705
151817,-0.04703720376824879
151818,-0.04938636007680931
151819,-0.05168465387999038
151820,-0.053418720950958704
151821,-0.05519417480263544
151822,-0.05664550086199019
151823,-0.05949380771675579
151824,-0.06160286536629054
151825,-0.06363263221297286
151826,-0.0654731628123872
151827,-0.06784001546645888
151828,-0.07043874737580233
151829,-0.07278316619651856
151830,-0.07472542227480931
151831,-0.0775642527495431
151832,-0.07980220813543035
151833,-0.08189231396114101
151834,-0.08383457032029673
151835,-0.08623806917773628
151836,-0.0887540296789794
151837,-0.0907932729993106
151838,-0.09263380434770739
151839,-0.09485280575644947
151840,-0.09729421163190762
151841,-0.09944465746650324
151842,-0.10127571187313827
151843,-0.10270934252315703
151844,-0.10384253619048704
151845,-0.10436063977762075
151846,-0.10572919199468447
151847,-0.10653351644968802
151848,-0.1068115234375
151849,-0.106964111328125
151850,-0.10706109772756595
151851,-0.10637745422653969
151852,-0.10537441854857958
151853,-0.10384380093742217
151854,-0.10168040298596034
151855,-0.09934546138788004
151856,-0.09621567396177538
151857,-0.09240571633731118
151858,-0.08820307506550894
151859,-0.08332974156696554
151860,-0.07824347932631268
151861,-0.07211753707684317
151862,-0.06581057189843362
151863,-0.05876436360026988
151864,-0.0516388571966817
151865,-0.04442110412843963
151866,-0.036653340911091424
151867,-0.02807651518899518
151868,-0.01942512997277406
151869,-0.0105845125350714
151870,-0.0012033642304231313
151871,0.009260117483123057
151872,0.020634386805632197
151873,0.03151424831265311
151874,0.04292643410913378
151875,0.05406060879840358
151876,0.06574005334043279
151877,0.07774363222837355
151878,0.09033860373966612
151879,0.10224045724207144
151880,0.11466989623567433
151881,0.12770841155909698
151882,0.14159390754629556
151883,0.15531259597038588
151884,0.1686114399116376
151885,0.18209003491958392
151886,0.19559579263549162
151887,0.2097817242946619
151888,0.22321419653202043
151889,0.23734926549856797
151890,0.25159079977239596
151891,0.26613750982747403
151892,0.28076698445619785
151893,0.2959701683759103
151894,0.31028152606068427
151895,0.3241446008535246
151896,0.3379602730556357
151897,0.35203025815913075
151898,0.36668817409887583
151899,0.38083746386136647
151900,0.39406648598358546
151901,0.4081920737017382
151902,0.42204566883775196
151903,0.4345307137227705
151904,0.44714464407958965
151905,0.4599064217496472
151906,0.4712867111885478
151907,0.48257347273859524
151908,0.49396670015765765
151909,0.5041676686650403
151910,0.5143401931463459
151911,0.5239213291236896
151912,0.5335248832058491
151913,0.5428055845410639
151914,0.551258261530249
151915,0.5591561906014347
151916,0.5667903248674809
151917,0.5732830644124166
151918,0.5797839981766968
151919,0.5860034611062256
151920,0.5908685973895362
151921,0.5957242519563254
151922,0.5990859261274711
151923,0.6017497469554917
151924,0.6033644174801267
151925,0.6039842513208781
151926,0.6037997656686197
151927,0.6029635486012199
151928,0.6014329286494658
151929,0.5992695424008031
151930,0.5951462206739686
151931,0.5905733260305608
151932,0.5854504253573768
151933,0.57824819181701
151934,0.5701006892983533
151935,0.5617225810719105
151936,0.552457394957906
151937,0.5422753873557448
151938,0.5308278505302009
151939,0.51833461189396
151940,0.5054202474567511
151941,0.492251569930915
151942,0.4778953814669655
151943,0.4633344462156851
151944,0.4485015275572846
151945,0.43249876865410913
151946,0.41643566365624074
151947,0.39956824047608414
151948,0.38244650439454364
151949,0.3646398446173396
151950,0.3466439602020773
151951,0.3276497913592252
151952,0.3091948437911961
151953,0.28992395190006776
151954,0.2712207333613845
151955,0.2511571495224008
151956,0.23029529102342683
151957,0.21049076234842182
151958,0.18984527986762448
151959,0.16938902118181207
151960,0.14905819910062035
151961,0.128490730410742
151962,0.10790559533454472
151963,0.08696916442156068
151964,0.06550039536297372
151965,0.04487732115614328
151966,0.025082276163723678
151967,0.005241110928523989
151968,-0.01449358656520913
151969,-0.03369250800000837
151970,-0.051731074463845686
151971,-0.06961574709622145
151972,-0.086378005666698
151973,-0.10268250094019571
151974,-0.11820034348149379
151975,-0.13292809781147033
151976,-0.14668471974884847
151977,-0.16005684664083702
151978,-0.17305527241761579
151979,-0.18448644280599194
151980,-0.19491802329387586
151981,-0.20459140734020742
151982,-0.21378462309147692
151983,-0.2221260931661476
151984,-0.2303753240659613
151985,-0.2381159287883503
151986,-0.24431299383568145
151987,-0.24956607328255592
151988,-0.25474931761601216
151989,-0.2591519621954643
151990,-0.2631287331876255
151991,-0.26669386000171386
151992,-0.2697089845308093
151993,-0.2731072936705678
151994,-0.2756836281656654
151995,-0.2775146825723004
151996,-0.27911514091424905
151997,-0.27983196106081515
151998,-0.279998779296875
151999,-0.28051689262075297
152000,-0.28020697335981287
152001,-0.28029921150481324
152002,-0.2803643049173713
152003,-0.27966645906404763
152004,-0.2782056739448423
152005,-0.2769897147676407
152006,-0.2750616788299369
152007,-0.2730271739336757
152008,-0.2703361986364685
152009,-0.2680982432505813
152010,-0.2657124438282457
152011,-0.26311845006216256
152012,-0.2609679882181119
152013,-0.2583977140973668
152014,-0.2555955258937993
152015,-0.2524657632776636
152016,-0.24954287371039535
152017,-0.24636224877612348
152018,-0.24270013996285342
152019,-0.23948156241631946
152020,-0.2347655707738133
152021,-0.2310064808975873
152022,-0.22758445258056226
152023,-0.2241447712652118
152024,-0.22085160922741892
152025,-0.2176709855102516
152026,-0.21401362101927573
152027,-0.2099635887031736
152028,-0.20607905183023562
152029,-0.2024630612000508
152030,-0.19910138365849323
152031,-0.1956983324433879
152032,-0.19217932240804614
152033,-0.1892245457521191
152034,-0.18578486574749023
152035,-0.18247405071131212
152036,-0.1791123729825112
152037,-0.175857165148567
152038,-0.17260195731454916
152039,-0.16934674948053133
152040,-0.1665350709471672
152041,-0.1644544483359337
152042,-0.16170312188876323
152043,-0.15905826552362376
152044,-0.157268584041554
152045,-0.1551276089696402
152046,-0.15309310407337906
152047,-0.15061507053181578
152048,-0.1483581350480836
152049,-0.1463792378220956
152050,-0.14495508448833447
152051,-0.1431145398455705
152052,-0.14148693592856157
152053,-0.13998003805639148
152054,-0.13821749241260545
152055,-0.13631318417184474
152056,-0.1349765202605259
152057,-0.1332519364040347
152058,-0.13171656707436644
152059,-0.1301079446595457
152060,-0.12845186834882202
152061,-0.12713893101096801
152062,-0.12496607456137174
152063,-0.12361042793078318
152064,-0.12196518000322587
152065,-0.12016126040504414
152066,-0.11943494693276543
152067,-0.118584519180658
152068,-0.11784056254042437
152069,-0.1162034672637806
152070,-0.11463147167240105
152071,-0.11285127986476713
152072,-0.11122367594775821
152073,-0.1095960720307493
152074,-0.10827364389499039
152075,-0.10732489562224769
152076,-0.10667791920236128
152077,-0.10520764899625028
152078,-0.10389945869574153
152079,-0.10271538042811414
152080,-0.10230847954248357
152081,-0.1019700814278838
152082,-0.10134208988059741
152083,-0.10052354182097348
152084,-0.0999036980562345
152085,-0.09964463877286614
152086,-0.099029541015625
152087,-0.09864162500258064
152088,-0.09767998144181397
152089,-0.09730495790811168
152090,-0.097198486328125
152091,-0.09705064481948905
152092,-0.097198486328125
152093,-0.09710150751211183
152094,-0.0971937398525143
152095,-0.09678683877964041
152096,-0.09708726799165804
152097,-0.09705064500673237
152098,-0.0968010784873375
152099,-0.09610324162177568
152100,-0.09508598917364511
152101,-0.0948174360964558
152102,-0.0946044921875
152103,-0.0946044921875
152104,-0.09449802013939583
152105,-0.0947984490705439
152106,-0.09402262172561161
152107,-0.09329155756470164
152108,-0.09249674319384824
152109,-0.0921630859375
152110,-0.0921630859375
152111,-0.09196912942894273
152112,-0.09185791015625
152113,-0.09071180500422066
152114,-0.090179443359375
152115,-0.08929239880142642
152116,-0.08836263015841117
152117,-0.08784925675656355
152118,-0.08729451511127949
152119,-0.08708157017246705
152120,-0.08639322981579559
152121,-0.08546820802285927
152122,-0.08476087867419352
152123,-0.08384060410585036
152124,-0.08287896166855736
152125,-0.08251817597009144
152126,-0.08141344065308971
152127,-0.08043280838120752
152128,-0.07986382450041403
152129,-0.0799418119838823
152130,-0.07951728141196254
152131,-0.07817111499991673
152132,-0.07798665509387147
152133,-0.07708062322915521
152134,-0.07595689779669472
152135,-0.07533705084878263
152136,-0.0750779899738277
152137,-0.07499525601475793
152138,-0.07388102615495282
152139,-0.07339952327057435
152140,-0.07273830910907324
152141,-0.07272881325555287
152142,-0.07189738432580108
152143,-0.071258544921875
152144,-0.07077365879974191
152145,-0.07034776564532227
152146,-0.07023654421930385
152147,-0.07024604044732004
152148,-0.06989475022788785
152149,-0.07015855982537783
152150,-0.06924778082968547
152151,-0.06852620765393294
152152,-0.06780938263899473
152153,-0.06769341249044125
152154,-0.06760118389493264
152155,-0.06800808496780653
152156,-0.067901611328125
152157,-0.0676059324302428
152158,-0.06787312049077833
152159,-0.06870591640326167
152160,-0.06955633544847226
152161,-0.070037841796875
152162,-0.070037841796875
152163,-0.0701856810585728
152164,-0.07014431571742609
152165,-0.07023179493502504
152166,-0.070343017578125
152167,-0.070343017578125
152168,-0.07024604110267163
152169,-0.07033826876194987
152170,-0.070144315904674
152171,-0.070037841796875
152172,-0.07018568077770322
152173,-0.07029690388892067
152174,-0.07028740597570546
152175,-0.07004733980371186
152176,-0.06878527218016926
152177,-0.06797147022166482
152178,-0.06760118464391508
152179,-0.06768866255079706
152180,-0.067901611328125
152181,-0.06745809522823523
152182,-0.06748996106458477
152183,-0.06769341155421088
152184,-0.06730550761848901
152185,-0.06608480458711066
152186,-0.065765380859375
152187,-0.06546970383394432
152188,-0.0653076171875
152189,-0.06521064136740742
152190,-0.06500719087778131
152191,-0.0653218656957156
152192,-0.06509941713272091
152193,-0.06530286762234704
152194,-0.0650946674739463
152195,-0.06511366592180148
152196,-0.06515027963809578
152197,-0.06539984306794377
152198,-0.065418841890304
152199,-0.06515977904927589
152200,-0.06532186653832431
152201,-0.06500244140625
152202,-0.06529811749545492
152203,-0.06520114204985357
152204,-0.06550156789145938
152205,-0.0651692791158076
152206,-0.0653076171875
152207,-0.0653076171875
152208,-0.0653076171875
152209,-0.06497057903395236
152210,-0.06444770256964323
152211,-0.06335722549761977
152212,-0.063125274246641
152213,-0.06292182375701488
152214,-0.062274860257055066
152215,-0.06172012170131326
152216,-0.06089681920815961
152217,-0.060286467739281265
152218,-0.05923260363455585
152219,-0.05820585046453278
152220,-0.0579833984375
152221,-0.057479522574380965
152222,-0.0571790972945189
152223,-0.056328684147541684
152224,-0.05544976799226444
152225,-0.05465496822653664
152226,-0.053582102584399965
152227,-0.05316094982013276
152228,-0.052947998046875
152229,-0.05280016084487665
152230,-0.051695435171002134
152231,-0.050881633212497675
152232,-0.050511342579123306
152233,-0.05035400390625
152234,-0.049675182995940315
152235,-0.04899021464236492
152236,-0.048324249604993846
152237,-0.048120799115367735
152238,-0.04791734862574162
152239,-0.048263885067009495
152240,-0.04807943864259316
152241,-0.048208271311273455
152242,-0.04817166190161216
152243,-0.048065185546875
152244,-0.048065185546875
152245,-0.0482177734375
152246,-0.0480238253549654
152247,-0.04791259765625
152248,-0.048157408244154855
152249,-0.049049178961612296
152250,-0.049734149655784314
152251,-0.05040011516126827
152252,-0.05060356565089438
152253,-0.050363506781459
152254,-0.050520846203310155
152255,-0.05049233729681819
152256,-0.05125052512509538
152257,-0.051865628125199875
152258,-0.05237900592730215
152259,-0.052933743172331564
152260,-0.0531005859375
152261,-0.0531005859375
152262,-0.05280491359319814
152263,-0.05316095206707091
152264,-0.05285102456734684
152265,-0.05294324623477927
152266,-0.05288763173006078
152267,-0.05290663916568699
152268,-0.05323891811097285
152269,-0.05409407885704367
152270,-0.05501435801288939
152271,-0.05568032408010789
152272,-0.05535754978885169
152273,-0.05483466742633681
152274,-0.05359636635306055
152275,-0.05320706332208918
152276,-0.0531005859375
152277,-0.0531005859375
152278,-0.05288763098107833
152279,-0.05290663991466944
152280,-0.05309108137708279
152281,-0.053253173828125
152282,-0.053059227992537754
152283,-0.052947998046875
152284,-0.052962255261987445
152285,-0.052933740738140896
152286,-0.0531005859375
152287,-0.0529018879153258
152288,-0.052989355617341416
152289,-0.05295275060795318
152290,-0.05308632816064381
152291,-0.053114843807977846
152292,-0.053243668518725334
152293,-0.05329928377242628
152294,-0.053114844088842816
152295,-0.05309583318917851
152296,-0.052841520006929626
152297,-0.05285102559719426
152298,-0.053091080253613705
152299,-0.05279541015625
152300,-0.05279541015625
152301,-0.05309108006636119
152302,-0.05300836661063658
152303,-0.05231054884408587
152304,-0.0512932963959553
152305,-0.05096435546875
152306,-0.05067343896231649
152307,-0.05080226133249957
152308,-0.050474741782746406
152309,-0.04975791189943146
152310,-0.04929539510474375
152311,-0.04849109957910803
152312,-0.048162157528442856
152313,-0.047774269695793084
152314,-0.04675226384399403
152315,-0.046248390976800204
152316,-0.04578587399486457
152317,-0.04553156090623734
152318,-0.04483374454401066
152319,-0.04366865770254604
152320,-0.0433349609375
152321,-0.043237989236797114
152322,-0.043330207346579004
152323,-0.043288851929419885
152324,-0.04269751501146884
152325,-0.041532428357255916
152326,-0.04110651263983307
152327,-0.0408935546875
152328,-0.0408935546875
152329,-0.04095392493646059
152330,-0.04103188105637496
152331,-0.04090306243108113
152332,-0.0405280084700461
152333,-0.040547024144451674
152334,-0.040731458866050556
152335,-0.0408935546875
152336,-0.040796583454909996
152337,-0.04088880062846612
152338,-0.040648749716940526
152339,-0.03975699304284654
152340,-0.03981117699514459
152341,-0.04000987323848891
152342,-0.040435791015625
152343,-0.040731458304311415
152344,-0.040740966796875
152345,-0.04083793774859543
152346,-0.040450054035335345
152347,-0.0408935546875
152348,-0.0408935546875
152349,-0.04074572123040011
152350,-0.04060264230044697
152351,-0.039895320067091504
152352,-0.039081518108587045
152353,-0.03823918879995871
152354,-0.0384521484375
152355,-0.0384521484375
152356,-0.0381930806344781
152357,-0.03839653112410421
152358,-0.03830431526126968
152359,-0.03828529631006932
152360,-0.03841079536090989
152361,-0.03800389438165766
152362,-0.03684831846695108
152363,-0.0362189475787641
152364,-0.03601549708913799
152365,-0.03591852679277374
152366,-0.03580253670261424
152367,-0.03600598719223576
152368,-0.03595036950434874
152369,-0.03587241946991104
152370,-0.0354099008027718
152371,-0.03449912864152936
152372,-0.033694836954418356
152373,-0.03371241346310989
152374,-0.03315767968211856
152375,-0.03345810018723935
152376,-0.03312583809401264
152377,-0.031951242385506194
152378,-0.031544341406253965
152379,-0.03113744042700174
152380,-0.031081822458254357
152381,-0.031266251281615275
152382,-0.030841775759758508
152383,-0.030989608280628037
152384,-0.029991377873249285
152385,-0.029306386113997565
152386,-0.028732630479502332
152387,-0.028742141687121553
152388,-0.0286865234375
152389,-0.02847356155301135
152390,-0.02858955389011821
152391,-0.028533935546875
152392,-0.028654683909088922
152393,-0.028519668126891596
152394,-0.028538691384743353
152395,-0.02864041667636724
152396,-0.028436966186741124
152397,-0.028677011574519982
152398,-0.02838134765625
152399,-0.02847831692276222
152400,-0.028533935546875
152401,-0.02858004212076445
152402,-0.028589554264609435
152403,-0.028238272003091643
152404,-0.02847356061679479
152405,-0.02858955435822649
152406,-0.028533935546875
152407,-0.028533935546875
152408,-0.028533935546875
152409,-0.028681767131523365
152410,-0.02847356024229896
152411,-0.02849258565344881
152412,-0.02808568467419658
152413,-0.028427453855652825
152414,-0.02843696674847106
152415,-0.02867701045106011
152416,-0.028533935546875
152417,-0.028630904251657284
152418,-0.0286865234375
152419,-0.028626147571184823
152420,-0.0284512368835009
152421,-0.02882008460625356
152422,-0.028640417518966746
152423,-0.02863090406440937
152424,-0.028834354554035484
152425,-0.0284878297219634
152426,-0.02779953711277372
152427,-0.02672666519793086
152428,-0.026291222918789943
152429,-0.026203768417542884
152430,-0.026092529296875
152431,-0.026032152681586575
152432,-0.0262451171875
152433,-0.026392948023165913
152434,-0.026092529296875
152435,-0.026092529296875
152436,-0.025944698554830743
152437,-0.026152906286659255
152438,-0.02623084555451446
152439,-0.026249874429702398
152440,-0.025833458872423717
152441,-0.025358133671451014
152442,-0.024285261288495272
152443,-0.023864088301770878
152444,-0.023554155184696824
152445,-0.02394202653978787
152446,-0.023864088489023393
152447,-0.023554155278323084
152448,-0.02335070478869697
152449,-0.02245896524755012
152450,-0.021626133009514478
152451,-0.021367062304193624
152452,-0.02110323388855749
152453,-0.021112749215566395
152454,-0.02120495908655972
152455,-0.0210714021308175
152456,-0.020170148198878305
152457,-0.019245105434497745
152458,-0.018768310546875
152459,-0.018768310546875
152460,-0.01847265056075139
152461,-0.017561881208186237
152462,-0.01685456243886886
152463,-0.01618859037980455
152464,-0.016508040321852414
152465,-0.015287337384095726
152466,-0.01451012386379452
152467,-0.013853667880721567
152468,-0.012845931695825662
152469,-0.01192088818246265
152470,-0.011458366425781144
152471,-0.0105571138981806
152472,-0.009484240579022103
152473,-0.008956581219928306
152474,-0.008753130730302192
152475,-0.008697509765625
152476,-0.007657944912549771
152477,-0.006922076136423847
152478,-0.005831649058834128
152479,-0.005156159613061472
152480,-0.004536291131966006
152481,-0.003685902139596943
152482,-0.0025160618008413698
152483,-0.001983642578125
152484,-0.0015401548458731343
152485,-0.0016180868111609363
152486,-0.0017340881360434171
152487,-0.0007914918941288153
152488,-0.0005324201589489876
152489,0.0003878658313581137
152490,0.000758180619340643
152491,0.0008694235785332423
152492,0.0005690067246892554
152493,0.0007534215983129739
152494,0.0010220115627798984
152495,0.0008185610731537838
152496,0.000762939453125
152497,0.0006564551404734455
152498,0.000762939453125
152499,0.000762939453125
152500,0.0008551464218193753
152501,0.0009711491510266977
152502,0.00091552734375
152503,0.0006103515625
152504,0.0007073175522266462
152505,0.000762939453125
152506,0.00091552734375
152507,0.0008185614476450099
152508,0.00046728246291279053
152509,0.0010220120308927806
152510,0.000818561541266666
152511,0.0006151110516405514
152512,0.0008694242338940384
152513,0.000762939453125
152514,0.000762939453125
152515,0.0007947636274372218
152516,0.0009298062792937396
152517,0.0009107676673615348
152518,0.0007025574077252988
152519,0.00091552734375
152520,0.00091552734375
152521,0.0008090422821159933
152522,0.00091552734375
152523,0.000619871289763555
152524,0.0009012476592330115
152525,0.0009298071219024498
152526,0.0012064232532258941
152527,0.002061567896215397
152528,0.002884889862857582
152529,0.0030517578125
152530,0.003172523401264307
152531,0.0031344426197401514
152532,0.0032091058476263474
152533,0.0030517578125
152534,0.0033426529730026452
152535,0.0033616938318730034
152536,0.003204345703125
152537,0.0030104157833665485
152538,0.0030469974807507388
152539,0.0031439623470037063
152540,0.0030660389949910966
152541,0.003194824852383165
152542,0.003708211548630197
152543,0.004105591583518935
152544,0.004568115680764853
152545,0.005631470302525623
152546,0.005660033697346033
152547,0.005788818618521541
152548,0.005844441830136885
152549,0.005660033978211001
152550,0.005640991246889114
152551,0.005844441736510627
152552,0.006435750193183709
152553,0.007453002641314282
152554,0.008087158203125
152555,0.008184122601265085
152556,0.00823974609375
152557,0.008133259908642314
152558,0.00814278178923157
152559,0.008234985106644544
152560,0.008041056591229341
152561,0.008128498734293547
152562,0.00823974609375
152563,0.008147543057201995
152564,0.0079345703125
152565,0.00808239702877163
152566,0.008193644669102254
152567,0.008087158203125
152568,0.007791504957825051
152569,0.006635948422994556
152570,0.006103515625
152571,0.00536438297985841
152572,0.005645751953125
152573,0.005548788116716529
152574,0.0054931640625
152575,0.0055392652062873785
152576,0.005742715695913493
152577,0.005650513501960393
152578,0.005507448802641639
152579,0.0046062063862765895
152580,0.003533329696683251
152581,0.0036160084184605357
152582,0.0032186308177532628
152583,0.0033474101215833873
152584,0.0030517578125
152585,0.0030517578125
152586,0.003347409934340075
152587,0.0033108328244538477
152588,0.0031073823348277334
152589,0.003347409747096763
152590,0.0032504463787994963
152591,0.003163007044407982
152592,0.003495235433516371
152593,0.003495235339894715
152594,0.0041055868087730586
152595,0.00486376405770187
152596,0.0054931640625
152597,0.0054931640625
152598,0.0059366411217864345
152599,0.005599651558320074
152600,0.005590127056306041
152601,0.005793577545932156
152602,0.005645751953125
152603,0.005645751953125
152604,0.005941402951486795
152605,0.0054931640625
152606,0.005881015288732507
152607,0.005660039408322276
152608,0.00579833984375
152609,0.00579833984375
152610,0.005650514531812415
152611,0.0055996519328113
152612,0.005687089301129629
152613,0.00579833984375
152614,0.00579833984375
152615,0.005604414792363683
152616,0.005640989187194273
152617,0.005950927734375
152618,0.006435739894709504
152619,0.007600817373908092
152620,0.0079345703125
152621,0.008225457327835735
152622,0.00809668410948228
152623,0.007888470666677526
152624,0.008072869156345766
152625,0.008535395781399406
152626,0.00964484742755327
152627,0.010167762932451932
152628,0.010519038172281094
152629,0.010635052885170838
152630,0.010625526510700674
152631,0.010828977000326789
152632,0.01068115234375
152633,0.01068115234375
152634,0.010976801469660267
152635,0.011734977501493743
152636,0.012442290840704449
152637,0.013108268329875432
152638,0.012863481990209591
152639,0.012969970703125
152640,0.012969970703125
152641,0.013229047400287065
152642,0.01302559691066095
152643,0.012674322138953874
152644,0.012756992902798355
152645,0.013066932292587792
152646,0.012974734405286093
152647,0.012710893818715022
152648,0.013011305804182272
152649,0.012826910404065498
152650,0.012756992528311731
152651,0.01306693210534448
152652,0.01312255859375
152653,0.01312255859375
152654,0.01312255859375
152655,0.012974734686151061
152656,0.01328943852707484
152657,0.012969970703125
152658,0.012969970703125
152659,0.013076460071396602
152660,0.012873009581770489
152661,0.012965206532855626
152662,0.01301606913185674
152663,0.012928636538284289
152664,0.01296520643923397
152665,0.012969970703125
152666,0.012969970703125
152667,0.012822147170012685
152668,0.01292387246163657
152669,0.013011304493479087
152670,0.01312255859375
152671,0.012984264150163486
152672,0.01217999118755857
152673,0.011310562085292398
152674,0.01089413201651897
152675,0.010487231037266741
152676,0.0103759765625
152677,0.010528564453125
152678,0.010528564453125
152679,0.010232918135882823
152680,0.009229959883763987
152681,0.008600549299626682
152682,0.008101452680001705
152683,0.00790276710964122
152684,0.0071859255235088215
152685,0.005836459197764606
152686,0.005752242164000711
152687,0.005645751953125
152688,0.005645751953125
152689,0.005784044711507898
152690,0.00571567488448501
152691,0.005197518494240276
152692,0.004560130052458164
152693,0.0036207770826108174
152694,0.003361698793866794
152695,0.0030517578125
152696,0.003439597804023334
152697,0.003366464181236104
152698,0.003403030899008063
152699,0.004188240814189241
152700,0.004873281725270584
152701,0.0053866733835114065
152702,0.005590123873137521
152703,0.005645751953125
152704,0.005904830616360249
152705,0.006283138428829326
152706,0.007300390876959899
152707,0.00823974609375
152708,0.009015423080903672
152709,0.009903915885922166
152710,0.01049997025647602
152711,0.011429794604928854
152712,0.012483612460114396
152713,0.013001770161080723
152714,0.014106450428024067
152715,0.01464367164452241
152716,0.015443176036594097
152717,0.016450896680147833
152718,0.01752377767637877
152719,0.01777809067138434
152720,0.018892302368417897
152721,0.019521717914558194
152722,0.02034028600940061
152723,0.021319409741240525
152724,0.02211571186793068
152725,0.022735595703125
152726,0.022735595703125
152727,0.02347470400640592
152728,0.024293272194879194
152729,0.02481619724928341
152730,0.025758755574082165
152731,0.026702880859375
152732,0.027187675231433783
152733,0.027909284732738616
152734,0.027877487802586014
152735,0.0276740373129599
152736,0.02806187234248484
152737,0.029083891395075456
152738,0.02968470974865537
152739,0.030202869134829915
152740,0.03031889423983393
152741,0.03021240234375
152742,0.029768938766120096
152743,0.030105910354045806
152744,0.03021240234375
152745,0.03021240234375
152746,0.03018380140631417
152747,0.031210587531463906
152748,0.032024389489968365
152749,0.03228823634922721
152750,0.032501220703125
152751,0.03235339979144667
152752,0.03269990421380445
152753,0.032515521827208314
152754,0.032644274448613356
152755,0.032440823865365585
152756,0.033332515471787345
152757,0.03431320672586508
152758,0.034882229928122274
152759,0.03509521484375
152760,0.03524303547456337
152761,0.03498872229231448
152762,0.034998256905564004
152763,0.03553390910187343
152764,0.03634771106037789
152765,0.036967597329753674
152766,0.0373744983090059
152767,0.037430128355066566
152768,0.03763357884469268
152769,0.03813267003420638
152770,0.03884951433538982
152771,0.03935337297196307
152772,0.039520263671875
152773,0.039765041491896504
152774,0.04055977272594621
152775,0.041484835338283524
152776,0.041915575050803004
152777,0.04190603950132311
152778,0.041813849852800775
152779,0.0421921438091267
152780,0.04320939625725727
152781,0.043931008754482706
152782,0.04423618444211105
152783,0.044458706779670204
152784,0.04469871593553683
152785,0.044633549122910135
152786,0.04555384438183257
152787,0.04636764634033703
152788,0.046737989027830766
152789,0.04703839661303877
152790,0.047297477897707996
152791,0.04814306967104557
152792,0.049063365117215915
152793,0.049285888671875
152794,0.04949887583445008
152795,0.049479802488552146
152796,0.049591064453125
152797,0.05104223865670401
152798,0.051477750216533086
152799,0.05156993855434303
152800,0.051727294921875
152801,0.051921208364056316
152802,0.05188465138303323
152803,0.051972070869435776
152804,0.05276679835856401
152805,0.053248405163970114
152806,0.0538492193045387
152807,0.054168701171875
152808,0.05402088203902654
152809,0.05410830096369915
152810,0.05422433262227431
152811,0.053873063093421394
152812,0.05421479491947792
152813,0.054127376369291935
152814,0.054459570118065445
152815,0.05421479482585166
152816,0.05422433280952223
152817,0.05431652002385389
152818,0.05438168983241499
152819,0.05426565733123112
152820,0.05446910782085723
152821,0.054183008662299956
152822,0.05405743752209393
152823,0.05402088250713942
152824,0.05412260779876331
152825,0.05411306925336281
152826,0.054168701171875
152827,0.05444209172578985
152828,0.05411306915973947
152829,0.05446433812685953
152830,0.0543212890625
152831,0.0543212890625
152832,0.0543212890625
152833,0.05444525972535535
152834,0.05518118420687284
152835,0.05627154443799268
152836,0.05639711763787514
152837,0.056610107421875
152838,0.0567579256185023
152839,0.05665620032687841
152840,0.0567626953125
152841,0.0567626953125
152842,0.05686919039174784
152843,0.05666573990212173
152844,0.056610107421875
152845,0.0565640147041195
152846,0.05645751953125
152847,0.056753155362765456
152848,0.056702292670142686
152849,0.05701223842625996
152850,0.05692005327161393
152851,0.05659579712278656
152852,0.0568183280736117
152853,0.05691051304101442
152854,0.0567626953125
152855,0.056568785240725915
152856,0.05704879007080263
152857,0.056610107421875
152858,0.05651315247960961
152859,0.056161884448716996
152860,0.05535762318892953
152861,0.054446866381781346
152862,0.054316518619519846
152863,0.0540908282823952
152864,0.05297662107924255
152865,0.05219937020355543
152866,0.05209287446895139
152867,0.05168597348970837
152868,0.05157470703125
152869,0.050474811812407816
152870,0.04966100985390336
152871,0.04914284222894945
152872,0.04934629281219722
152873,0.04855157393633497
152874,0.0474786880717319
152875,0.046950978530970265
152876,0.0470383911829367
152877,0.046706207264529113
152878,0.046766611872959614
152879,0.04584631371173823
152880,0.04532814552505439
152881,0.044708251953125
152882,0.044708251953125
152883,0.0444126183685569
152884,0.0445556640625
152885,0.044458709962838724
152886,0.04469870956919979
152887,0.044601755469538505
152888,0.04461129794708538
152889,0.043964397642337054
152890,0.04305841305699889
152891,0.042613341418585936
152892,0.04228115984074276
152893,0.042007761141670194
152894,0.04201730399370829
152895,0.041961669921875
152896,0.042068166686331065
152897,0.041961669921875
152898,0.041666037273532665
152899,0.04075528158985815
152900,0.040241883752528206
152901,0.039687166542726464
152902,0.03971894250142562
152903,0.03972848591519826
152904,0.03996848383635571
152905,0.03962676071719603
152906,0.0389385430060445
152907,0.038161288198220206
152908,0.037749615371644576
152909,0.03773052779510765
152910,0.03754616497564012
152911,0.03749053043569395
152912,0.03689926691783915
152913,0.03588201446968629
152914,0.035201712169936
152915,0.03509521484375
152916,0.03494739908130877
152917,0.03495694343129797
152918,0.03434659196241962
152919,0.033292793487082556
152920,0.032501220703125
152921,0.0326951266555094
152922,0.03295421205956832
152923,0.03265380859375
152924,0.03275076147632055
152925,0.03265858100280334
152926,0.03266812591453167
152927,0.03254253839039778
152928,0.0325059932058
152929,0.03248690310147836
152930,0.03270944378904777
152931,0.0323581780050933
152932,0.03245513070042054
152933,0.03254253801590195
152934,0.03250599339304791
152935,0.032515538866515384
152936,0.031808234889557724
152937,0.030698802716892393
152938,0.030364990234375
152939,0.030268037819917337
152940,0.03021240234375
152941,0.02989290783737968
152942,0.030115450022913992
152943,0.030059814453125
152944,0.02900601822473529
152945,0.028201762301428242
152946,0.027775769158164137
152947,0.027724906559163022
152948,0.02703669540159644
152949,0.025668177731250543
152950,0.025223091394090322
152951,0.025232637803783563
152952,0.024881372675189896
152953,0.023924529329375332
152954,0.023304631263560437
152955,0.022897730284308207
152956,0.02268950644940299
152957,0.021904344843438124
152958,0.02121926367467652
152959,0.020599365234375
152960,0.020502413475278133
152961,0.02044677734375
152962,0.02046109803495271
152963,0.02023855322797521
152964,0.01999856092417235
152965,0.01898130838242012
152966,0.018477455831314334
152967,0.01786710436243599
152968,0.017806694323894215
152969,0.0177001953125
152970,0.017552381235266985
152971,0.01640163615007936
152972,0.015772189240389756
152973,0.015568738750768245
152974,0.015869140625
152975,0.01567523804303203
152976,0.0154161509537649
152977,0.015273111158041357
152978,0.014371906097076025
152979,0.013151203159319337
152980,0.01312255859375
152981,0.013025607490009326
152982,0.012822157000383212
152983,0.01312255859375
152984,0.01312255859375
152985,0.012531304157269474
152986,0.01150450305251671
152987,0.011097602073264481
152988,0.011134141640493873
152989,0.010787652010505012
152990,0.010778103166621103
152991,0.010390299968758347
152992,0.01068115234375
152993,0.010584201614500553
152994,0.010380751124874438
152995,0.010574652489751677
152996,0.01068115234375
152997,0.010533339109121095
152998,0.010695476405346134
152999,0.01056987764651227
153000,0.01082896548475725
153001,0.010528564453125
153002,0.010528564453125
153003,0.010528564453125
153004,0.010542889076464876
153005,0.009738636898060888
153006,0.008721384449930314
153007,0.008346246322234949
153008,0.008142795832608834
153009,0.007939345342982719
153010,0.008026745449536792
153011,0.00833669626126951
153012,0.008096708451342954
153013,0.008041070728232862
153014,0.007158969721353979
153015,0.006270429168816899
153016,0.0059652534811885545
153017,0.005742701933396596
153018,0.005207089526659155
153019,0.005904840446726174
153020,0.005604440070450119
153021,0.005640976548151055
153022,0.0057522526497228305
153023,0.005742701746153284
153024,0.00579833984375
153025,0.0054327503726768235
153026,0.005645751953125
153027,0.005497939654721859
153028,0.00579833984375
153029,0.00579833984375
153030,0.00550271543418703
153031,0.0055996650399674
153032,0.0055901135746587146
153033,0.005645751953125
153034,0.005585337701571887
153035,0.005701390425212942
153036,0.005941375988201346
153037,0.007096888707696437
153038,0.007726343856165402
153039,0.00807760626969883
153040,0.00804107157083697
153041,0.008031519543789145
153042,0.008087158203125
153043,0.008133244741791373
153044,0.008142796956082513
153045,0.0077915347297877946
153046,0.008087158203125
153047,0.007893260115033336
153048,0.00822541735101584
153049,0.007902812797432756
153050,0.00699206188850412
153051,0.006270432539224128
153052,0.005904841476578196
153053,0.00579833984375
153054,0.00579833984375
153055,0.005660081351224558
153056,0.005631422461403786
153057,0.005502717119395247
153058,0.005645751953125
153059,0.005645751953125
153060,0.005645751953125
153061,0.0054931640625
153062,0.00539621548656705
153063,0.005636198521743129
153064,0.005539249945810179
153065,0.005451854988511616
153066,0.005636198334490613
153067,0.00579833984375
153068,0.00579833984375
153069,0.005650528856063849
153070,0.00570616845162547
153071,0.00568706065262676
153072,0.005650528949685506
153073,0.005844425446190609
153074,0.005757031331491552
153075,0.006089184354453515
153076,0.005752254334931047
153077,0.0055488038453049325
153078,0.005788785476133161
153079,0.005447078647307305
153080,0.004855836100905951
153081,0.003986394265970302
153082,0.0032647629506051424
153083,0.0031487057330767555
153084,0.003204345703125
153085,0.0032504309310789846
153086,0.0034538814207050995
153087,0.0024748485026815023
153088,0.0019518899314206859
153089,0.0012350357062496705
153090,0.001068115234375
153091,0.0008233572623378585
153092,0.0009011944816215561
153093,0.0009203049956667
153094,0.00091552734375
153095,0.00091552734375
153096,0.00047209690849006836
153097,-0.0004895151951010341
153098,-0.0012063697011416195
153099,-0.001373291015625
153100,-0.0014654605353072048
153101,-0.001678466796875
153102,-0.0015306568390316684
153103,-0.0016323821306555536
153104,-0.00152587890625
153105,-0.00152587890625
153106,-0.0016928009697204345
153107,-0.0015671853588136062
153108,-0.0013828472556841644
153109,-0.00152587890625
153110,-0.001622825984222647
153111,-0.0015306571199012384
153112,-0.0016323824115251236
153113,-0.0013319849375480182
153114,-0.0016641318750563166
153115,-0.0016180474897064404
153116,-0.0017341077967706652
153117,-0.001382847817414101
153118,-0.0014797947081480376
153119,-0.001567184609831154
153120,-0.002121894985187575
153121,-0.0029770025536515316
153122,-0.003509521484375
153123,-0.004396377299270214
153124,-0.0042724609375
153125,-0.0042724609375
153126,-0.0042724609375
153127,-0.004226377020263006
153128,-0.004119873046875
153129,-0.003972063931635777
153130,-0.004165956870490338
153131,-0.004078568092276298
153132,-0.004262903199475931
153133,-0.003814697265625
153134,-0.00400858992360539
153135,-0.004119873046875
153136,-0.004073789410507576
153137,-0.004161177626987077
153138,-0.003976843268760693
153139,-0.004226377394754232
153140,-0.004119873046875
153141,-0.004119873046875
153142,-0.004119873046875
153143,-0.0040229269987497734
153144,-0.0038194765091282604
153145,-0.004073789691377146
153146,-0.0038703392017510312
153147,-0.003814697265625
153148,-0.003921201894373802
153149,-0.003911643126502312
153150,-0.004115093616128427
153151,-0.004226377769245458
153152,-0.004022927279619343
153153,-0.004115093522506771
153154,-0.0038003585988986574
153155,-0.004119873046875
153156,-0.004119873046875
153157,-0.0042724609375
153158,-0.004078569777484515
153159,-0.004115093335258857
153160,-0.0042724609375
153161,-0.004078569964727827
153162,-0.004410709412411604
153163,-0.0040594507437766315
153164,-0.004854133294086582
153165,-0.00577922024831218
153166,-0.006302186215766659
153167,-0.006602582004535548
153168,-0.006566059289351654
153169,-0.00650085661929921
153170,-0.0066169219819788815
153171,-0.0067090871013972325
153172,-0.006699526835570043
153173,-0.0075037685282473105
153174,-0.008373213265477308
153175,-0.008942262494803383
153176,-0.008961383400944389
153177,-0.009293520508086761
153178,-0.00885009765625
153179,-0.0090439875055623
153180,-0.009007465913842735
153181,-0.009002685546875
153182,-0.009002685546875
153183,-0.009002685546875
153184,-0.009247437714314242
153185,-0.009848228168382944
153186,-0.010957644799706104
153187,-0.011184998060410465
153188,-0.01119455926246342
153189,-0.011730144986775777
153190,-0.011717527664094764
153191,-0.010612892055095535
153192,-0.009779967224376886
153193,-0.009048767404417154
153194,-0.008864440067870197
153195,-0.008845316821169383
153196,-0.008697509765625
153197,-0.00889139849145902
153198,-0.008854878584956875
153199,-0.009215697987536521
153200,-0.008905741277579647
153201,-0.00885009765625
153202,-0.008804016079577417
153203,-0.008891398116972395
153204,-0.009002685546875
153205,-0.009048767029925927
153206,-0.009058329355447958
153207,-0.009150492227928157
153208,-0.00880401626682073
153209,-0.008891397742485771
153210,-0.008854878959448101
153211,-0.008757935064643974
153212,-0.007963258506175235
153213,-0.007185975049834273
153214,-0.006667785985318643
153215,-0.006561279296875
153216,-0.006561279296875
153217,-0.00640869140625
153218,-0.006505635113810815
153219,-0.00641347299031307
153220,-0.006866455078125
153221,-0.006381737008429204
153222,-0.006399128050880548
153223,-0.005461428267877853
153224,-0.004647626309373394
153225,-0.004129436589496968
153226,-0.00396728515625
153227,-0.004064228582941245
153228,-0.00397206702118264
153229,-0.004134218735294576
153230,-0.00391164059869459
153231,-0.00396728515625
153232,-0.00396728515625
153233,-0.003870341916802067
153234,-0.003814697265625
153235,-0.004212034140525325
153236,-0.004909764557233377
153237,-0.00563140551571837
153238,-0.006423037937278286
153239,-0.006394344781600058
153240,-0.006856890599277268
153241,-0.006210023156047751
153242,-0.005909629707843274
153243,-0.004911506498273133
153244,-0.004439395920883223
153245,-0.004119873046875
153246,-0.004267678510832822
153247,-0.004013365328583937
153248,-0.0040229302755399494
153249,-0.003819479785918436
153250,-0.003889472653336607
153251,-0.0030661055606236204
153252,-0.002307948815035369
153253,-0.0020440704985687516
153254,-0.0016371695193165225
153255,-0.0018214892724357067
153256,-0.001678466796875
153257,-0.0018723517778151653
153258,-0.0010968120412978163
153259,-0.00047211216895806413
153260,0.0001382392999202797
153261,0.0004529807770995412
153262,0.00091552734375
153263,0.0006247004340834937
153264,0.0007533734763215668
153265,0.0008550986743237961
153266,0.001068115234375
153267,0.0006247008085701181
153268,0.000716859936147258
153269,0.0008042357944577131
153270,0.00091552734375
153271,0.0009759563876628283
153272,0.0008598814754822004
153273,0.0010633319651083151
153274,0.0007168601233905703
153275,-0.00016518386738435483
153276,-0.0007581560902320574
153277,-0.0013128615972163439
153278,-0.0014289370711407135
153279,-0.0016688998838458023
153280,-0.0017245459393615157
153281,-0.0017341129460123695
153282,-0.002121879818341235
153283,-0.003083486117334439
153284,-0.0036064631322409745
153285,-0.003957717868734178
153286,-0.004013364111493204
153287,-0.004119873046875
153288,-0.0042676772001204325
153289,-0.004151600602717783
153290,-0.004868461100604181
153291,-0.005922224748340051
153292,-0.00640869140625
153293,-0.00640869140625
153294,-0.006260887440252481
153295,-0.006728219055004099
153296,-0.0066995152263742445
153297,-0.006718651205749137
153298,-0.006348260677128955
153299,-0.006658220476628092
153300,-0.006861670966254207
153301,-0.00640869140625
153302,-0.0065056324923768345
153303,-0.006856886667130898
153304,-0.006561279296875
153305,-0.006367397311864644
153306,-0.006551710698637586
153307,-0.0067742984783601854
153308,-0.0066582201957585225
153309,-0.0067138671875
153310,-0.0065008478187715026
153311,-0.006616926382238134
153312,-0.006413475892612019
153313,-0.006515201184235904
153314,-0.00669951354117063
153315,-0.006718651767488277
153316,-0.006561279296875
153317,-0.006464338678861048
153318,-0.006260888189234933
153319,-0.0066073572222661815
153320,-0.006519986138715408
153321,-0.00655649452964341
153322,-0.006561279296875
153323,-0.006561279296875
153324,-0.006561279296875
153325,-0.0066677894493521305
153326,-0.006464338959726017
153327,-0.0067042972785501965
153328,-0.0065008466952932225
153329,-0.006423046456931822
153330,-0.006256103515625
153331,-0.0064691241950750895
153332,-0.006256103515625
153333,-0.006403906264527185
153334,-0.0066534342114315985
153335,-0.006672574965566173
153336,-0.007300292573277642
153337,-0.007859781349540164
153338,-0.008586213909699719
153339,-0.008697509765625
153340,-0.008956608276835412
153341,-0.00914091726337211
153342,-0.009012256392050567
153343,-0.009169629798885007
153344,-0.00885009765625
153345,-0.00944130715391224
153346,-0.0105602848936667
153347,-0.010986328125
153348,-0.011429734967381712
153349,-0.01139801480770498
153350,-0.011388443494421134
153351,-0.011444091796875
153352,-0.011398014901326638
153353,-0.011485382895348954
153354,-0.011448877593949408
153355,-0.011490168598797104
153356,-0.011499740286576781
153357,-0.011887497796648001
153358,-0.012849101755076794
153359,-0.01356596440627969
153360,-0.013880712062552678
153361,-0.013839421432196207
153362,-0.01373291015625
153363,-0.013880711968931023
153364,-0.013839421525817864
153365,-0.013926788396366503
153366,-0.0140380859375
153367,-0.01402372732918144
153368,-0.014731017824477973
153369,-0.01584042303384865
153370,-0.016021728515625
153371,-0.016118667448435337
153372,-0.01617431640625
153373,-0.016067804755812567
153374,-0.01617431640625
153375,-0.01617431640625
153376,-0.016326904296875
153377,-0.01613302680574095
153378,-0.01631733120476128
153379,-0.016326904296875
153380,-0.016326904296875
153381,-0.016326904296875
153382,-0.01617431640625
153383,-0.016368193522888222
153384,-0.016331691030179774
153385,-0.016326904296875
153386,-0.015939150438085182
153387,-0.016455558052867848
153388,-0.01611388005977437
153389,-0.016326904296875
153390,-0.016179103326798085
153391,-0.016571643544406055
153392,-0.017366297633474855
153393,-0.018143597941865774
153394,-0.01864743710493208
153395,-0.018976548144297115
153396,-0.0189208984375
153397,-0.01886046152928523
153398,-0.01897654823791877
153399,-0.018625297059085312
153400,-0.018828747642333082
153401,-0.018712660652834574
153402,-0.01891611114246069
153403,-0.01861572265625
153404,-0.01861572265625
153405,-0.01861572265625
153406,-0.018828748016819708
153407,-0.01861572265625
153408,-0.01861572265625
153409,-0.0189208984375
153410,-0.018823960721784997
153411,-0.018620510232158882
153412,-0.018768310546875
153413,-0.018671372924781653
153414,-0.018467922435155538
153415,-0.018753947444661728
153416,-0.018976548799653308
153417,-0.018773098310027193
153418,-0.01850920960147392
153419,-0.01861572265625
153420,-0.01861572265625
153421,-0.018981336843679676
153422,-0.0186713732056483
153423,-0.018911322536708988
153424,-0.018707871953461214
153425,-0.01882396118989328
153426,-0.018472710853659327
153427,-0.01881438510185895
153428,-0.0189208984375
153429,-0.018625298931527638
153430,-0.018722236085512704
153431,-0.01851878559588659
153432,-0.018610934424989525
153433,-0.01902741196038436
153434,-0.018436213603814238
153435,-0.019044756378804602
153436,-0.01887482416338562
153437,-0.018865247419990495
153438,-0.01862529949326678
153439,-0.01861572265625
153440,-0.01861572265625
153441,-0.01891132141323991
153442,-0.01887482435062893
153443,-0.018768310546875
153444,-0.018768310546875
153445,-0.01861572265625
153446,-0.018809595840751054
153447,-0.01877309924625296
153448,-0.018935264629255533
153449,-0.01861572265625
153450,-0.018911320851500768
153451,-0.0190274125221235
153452,-0.018727025627494773
153453,-0.01861572265625
153454,-0.01860135590276453
153455,-0.018727025814738084
153456,-0.018911320477014146
153457,-0.01860135562189956
153458,-0.0189208984375
153459,-0.018773099620739583
153460,-0.01861572265625
153461,-0.01861572265625
153462,-0.018467923933115842
153463,-0.018722237115364727
153464,-0.01861572265625
153465,-0.01861572265625
153466,-0.0189208984375
153467,-0.0189208984375
153468,-0.018625301365718307
153469,-0.01881438379114196
153470,-0.0189208984375
153471,-0.01877309999523081
153472,-0.019027413177479694
153473,-0.019017834187141817
153474,-0.01892568797948207
153475,-0.018828752323461907
153476,-0.01861572265625
153477,-0.01861572265625
153478,-0.01872223758347761
153479,-0.018906529343445517
153480,-0.01877789000532576
153481,-0.018722237677099265
153482,-0.018906529062580547
153483,-0.018038899853679253
153484,-0.017455461869566844
153485,-0.01666081938969384
153486,-0.016622500245178414
153487,-0.01626646177130564
153488,-0.016382556905971065
153489,-0.0166225000579351
153490,-0.01779234049031233
153491,-0.018296176657471838
153492,-0.018610932552533394
153493,-0.01872223805159049
153494,-0.01890652793910687
153495,-0.018777890941551523
153496,-0.018768310546875
153497,-0.018865245547538968
153498,-0.0189208984375
153499,-0.018707867272332392
153500,-0.0189208984375
153501,-0.018773100931461176
153502,-0.018981341899295123
153503,-0.018768310546875
153504,-0.018472715722040664
153505,-0.018676166305288434
153506,-0.018753938925008193
153507,-0.018625303799908975
153508,-0.018768310546875
153509,-0.018671375920697657
153510,-0.018467925431071543
153511,-0.0189208984375
153512,-0.018823963904944313
153513,-0.0184727162837706
153514,-0.018661794496178313
153515,-0.01857444166901614
153516,-0.018463134765625
153517,-0.018676167054261682
153518,-0.018560069110932772
153519,-0.018911316544867773
153520,-0.018768310546875
153521,-0.018865244798561116
153522,-0.0189208984375
153523,-0.019027414769061654
153524,-0.01882396427943554
153525,-0.01847271703274385
153526,-0.017363321560126647
153527,-0.0168403217949368
153528,-0.016489074641871364
153529,-0.01617431640625
153530,-0.016271250377066546
153531,-0.01617910772705734
153532,-0.016021728515625
153533,-0.015343191375260766
153534,-0.014510223852661984
153535,-0.01399201475292788
153536,-0.014079365614021469
153537,-0.013599488297827603
153538,-0.01252658164902361
153539,-0.012013163870106047
153540,-0.011754059179801908
153541,-0.011245432908925794
153542,-0.010654248033998398
153543,-0.00978479178119426
153544,-0.009382682590862251
153545,-0.009140898164360993
153546,-0.008716676921305884
153547,-0.007384665020463212
153548,-0.006880830632128975
153549,-0.0067138671875
153550,-0.006454762122709238
153551,-0.006464345981414648
153552,-0.00640869140625
153553,-0.00637699680554308
153554,-0.005563194847038622
153555,-0.004601597067698955
153556,-0.004226390408288676
153557,-0.004119873046875
153558,-0.004119873046875
153559,-0.004073802611285333
153560,-0.004064218190840782
153561,-0.0038242817796912063
153562,-0.0038607676075930117
153563,-0.00396728515625
153564,-0.0041150806962202404
153565,-0.004073802798528645
153566,-0.0041611508509357365
153567,-0.003976870044812034
153568,-0.0040133553109700975
153569,-0.004119873046875
153570,-0.004415463752319654
153571,-0.005372268525643766
153572,-0.006089137824048668
153573,-0.005960512997423659
153574,-0.006653419231828571
153575,-0.0067695225116471
153576,-0.0067138671875
153577,-0.006500831153960259
153578,-0.006520002241787512
153579,-0.00596530619069173
153580,-0.005354954721813385
153581,-0.00455073849447507
153582,-0.004124665959268899
153583,-0.004073803360267784
153584,-0.00406421744185833
153585,-0.003676488393046666
153586,-0.002775340254586644
153587,-0.00213623046875
153588,-0.0013972565138110572
153589,-0.0003800040656804841
153590,0.00024951998899001783
153591,0.0011919439654467946
153592,0.002320508091706139
153593,0.0029404460407367232
153594,0.003347347019988953
153595,0.004641015434464728
153596,0.006268619351473645
153597,0.007305045227991281
153598,0.00802670874949787
153599,0.009015200633750397
153600,0.010495010134258149
153601,0.011858713920770508
153602,0.01368976832740554
153603,0.014634056796763524
153604,0.015702171937516867
153605,0.016409455036633543
153606,0.01766663968289775
153607,0.01913686204790992
153608,0.020667534428288357
153609,0.022091687855671158
153610,0.022706832985921254
153611,0.023830604480669117
153612,0.02484785692879969
153613,0.02641501054957737
153614,0.028033026675734506
153615,0.029716287133981254
153616,0.029999363876028792
153617,0.030793989878343066
153618,0.03186689896131012
153619,0.03263942639253942
153620,0.03363750250997477
153621,0.03461827465393647
153622,0.03477565658042445
153623,0.03587066339189078
153624,0.03705488630634356
153625,0.0372314453125
153626,0.037328376287395944
153627,0.03767962035091911
153628,0.037384033203125
153629,0.037480964084399285
153630,0.0372410341331992
153631,0.0372314453125
153632,0.03752223767544408
153633,0.03709803543777843
153634,0.03639075327487372
153635,0.035276570132716775
153636,0.035090420246152484
153637,0.03509521484375
153638,0.03509521484375
153639,0.03494742164434417
153640,0.034942626953125
153641,0.03503955745990806
153642,0.03479962863218165
153643,0.03512689820976615
153644,0.03613456099459342
153645,0.03691188489584875
153646,0.03700402024329515
153647,0.03831206365003116
153648,0.039052910055822516
153649,0.039825439453125
153650,0.040503951034519425
153651,0.04148472598715842
153652,0.04219200758832859
153653,0.0430153997718755
153654,0.04421692216592563
153655,0.045381967251727495
153656,0.04642799093671535
153657,0.04742606246665275
153658,0.04858631220584243
153659,0.049826196342675676
153660,0.051526753565450334
153661,0.05290483964679033
153662,0.05454203435058084
153663,0.055966187777963645
153664,0.05680876247129949
153665,0.057593791507729246
153666,0.058870152578310325
153667,0.060686820383475525
153668,0.06213015613339475
153669,0.06299961631834526
153670,0.0640120731390309
153671,0.06502932558713846
153672,0.06589878586571522
153673,0.06646786617773484
153674,0.06716555558778019
153675,0.06818280803591076
153676,0.06892365977819173
153677,0.0690109974384996
153678,0.0689745224708099
153679,0.0689697265625
153680,0.06906665585219232
153681,0.06897452256443155
153682,0.0689697265625
153683,0.06877586817035866
153684,0.06925571796151873
153685,0.0691827693368634
153686,0.0689697265625
153687,0.06867414315960894
153688,0.06770295702767835
153689,0.06701486149393847
153690,0.066680908203125
153691,0.06672697451932498
153692,0.0667365671785489
153693,0.06608974214631615
153694,0.06522987396523336
153695,0.06440647916026167
153696,0.06394391911196388
153697,0.06292666657022086
153698,0.062132050679155885
153699,0.0612069303953078
153700,0.06033267261683917
153701,0.05963498573459235
153702,0.05906110698645971
153703,0.057600480838331206
153704,0.05619551422736113
153705,0.055103415519281045
153706,0.05418309151823869
153707,0.05328195470809569
153708,0.052061251770339004
153709,0.05035111003347053
153710,0.04909203196495108
153711,0.04765059431845733
153712,0.04691932989892905
153713,0.04590207745079848
153714,0.045180406720350744
153715,0.0433637433154448
153716,0.04233689671012541
153717,0.04181867628206048
153718,0.04046457395529974
153719,0.03905001487234907
153720,0.03801357364173257
153721,0.03765753535510311
153722,0.03655294945967265
153723,0.0352765866102663
153724,0.033690250573358144
153725,0.033167232270900925
153726,0.03207703887517365
153727,0.030943668916594773
153728,0.030517578125
153729,0.02933525499917171
153730,0.028669243525017443
153731,0.02724509009763464
153732,0.026116517264465598
153733,0.025709616378835027
153734,0.024498508721736232
153735,0.02277877488738298
153736,0.021589743800068305
153737,0.020863273884534298
153738,0.020160792685564134
153739,0.018949685309339513
153740,0.01763205495434663
153741,0.015616741462014586
153742,0.014233854978479175
153743,0.012693582542687763
153744,0.010881719914468457
153745,0.009184061432799387
153746,0.007672576805064049
153747,0.006137102056417014
153748,0.004514296201039099
153749,0.002789765147658954
153750,0.0003675517995943764
153751,-0.001727412006182404
153752,-0.003965367392069665
153753,-0.005907743494464757
153754,-0.007891385791724789
153755,-0.010207074943976388
153756,-0.01320317134686642
153757,-0.01484996854025597
153758,-0.0167002165041366
153759,-0.018863317204033263
153760,-0.021503375133050527
153761,-0.02366359768879001
153762,-0.02603014841026245
153763,-0.028582876636829534
153764,-0.03091775869097514
153765,-0.03321137529922906
153766,-0.03477851918326247
153767,-0.03752030212303865
153768,-0.03992524145689084
153769,-0.041691036926319855
153770,-0.04463627026210049
153771,-0.04739244944645992
153772,-0.04907571467945714
153773,-0.050935562230610264
153774,-0.05245184314115593
153775,-0.054355829226788485
153776,-0.05681643090642119
153777,-0.05944209137375527
153778,-0.06128274368248218
153779,-0.06314259235712277
153780,-0.06436329529487947
153781,-0.06529321981944308
153782,-0.06629127571441665
153783,-0.06756764043627453
153784,-0.06892653361573432
153785,-0.0706606620094672
153786,-0.07199268870266959
153787,-0.0724043888670219
153788,-0.07351856723443297
153789,-0.07444369313560803
153790,-0.0750732421875
153791,-0.07497631636184576
153792,-0.07551180799549641
153793,-0.0765847226022194
153794,-0.07729199980313033
153795,-0.0776624367685337
153796,-0.07775936240694462
153797,-0.07845704030142962
153798,-0.07917871627473612
153799,-0.07952995490815261
153800,-0.07985912914271073
153801,-0.079803466796875
153802,-0.0801547054302915
153803,-0.08084278317572806
153804,-0.08162012196299237
153805,-0.08197136040916096
153806,-0.08230053557995864
153807,-0.082244873046875
153808,-0.08244352360241858
153809,-0.08235619830028561
153810,-0.08239266090979581
153811,-0.08233699818946885
153812,-0.08235619848752891
153813,-0.08239266081617416
153814,-0.08248958589285055
153815,-0.08231493641204446
153816,-0.0822400728319229
153817,-0.08219881066282599
153818,-0.08238306010540039
153819,-0.082550048828125
153820,-0.082244873046875
153821,-0.082244873046875
153822,-0.082244873046875
153823,-0.082244873046875
153824,-0.08234179784268182
153825,-0.08254524833230793
153826,-0.08242912145961118
153827,-0.08256445050281952
153828,-0.08254524823868628
153829,-0.08219881103731722
153830,-0.0822861343733678
153831,-0.0823974609375
153832,-0.08218440898812227
153833,-0.0823974609375
153834,-0.0823974609375
153835,-0.08245792518349605
153836,-0.08234179746819059
153837,-0.0821018868968666
153838,-0.08105297533096809
153839,-0.08031689403168106
153840,-0.08026123046875
153841,-0.07990999305242884
153842,-0.07999731526501035
153843,-0.07981306891198742
153844,-0.07968253718140463
153845,-0.07991479429723296
153846,-0.079803466796875
153847,-0.0799560546875
153848,-0.07985913064067103
153849,-0.079803466796875
153850,-0.07986393197908762
153851,-0.07897241123379883
153852,-0.0779916174630413
153853,-0.077667236328125
153854,-0.07757031246853935
153855,-0.0775146484375
153856,-0.0775146484375
153857,-0.0777084959694188
153858,-0.07752425148882898
153859,-0.0775146484375
153860,-0.0775146484375
153861,-0.0775146484375
153862,-0.07725553363596496
153863,-0.07726513696815891
153864,-0.0770616864785328
153865,-0.07595711387750174
153866,-0.07533715888918614
153867,-0.075225830078125
153868,-0.0750732421875
153869,-0.07497631879603182
153870,-0.07506844028734429
153871,-0.0750127756945658
153872,-0.07512890678027849
153873,-0.0750732421875
153874,-0.07502718158227625
153875,-0.07521142390954957
153876,-0.07508284636229806
153877,-0.075225830078125
153878,-0.0751289069675218
153879,-0.07477767076829137
153880,-0.07508764882418371
153881,-0.0749619124402131
153882,-0.0750732421875
153883,-0.075225830078125
153884,-0.07503198423141443
153885,-0.0750684398192314
153886,-0.07496671452760752
153887,-0.0750732421875
153888,-0.0747776713300305
153889,-0.07380647892538914
153890,-0.07302149201909118
153891,-0.07277962127261309
153892,-0.0726778959809892
153893,-0.07249365590065404
153894,-0.07262223063923287
153895,-0.07253971603777411
153896,-0.07261742780284218
153897,-0.0721932832366643
153898,-0.07122689338753484
153899,-0.07060693633951519
153900,-0.07020003536026297
153901,-0.07014436992488036
153902,-0.070037841796875
153903,-0.07048119667874059
153904,-0.07020483857113106
153905,-0.07017602071024728
153906,-0.0701952327111248
153907,-0.06987084474175397
153908,-0.07009350751312717
153909,-0.0703334113436229
153910,-0.070037841796875
153911,-0.07013476387762618
153912,-0.0701904296875
153913,-0.0699917824087466
153914,-0.07007909788050905
153915,-0.0701904296875
153916,-0.0702825482765135
153917,-0.07010791789471853
153918,-0.07018082289126797
153919,-0.070037841796875
153920,-0.07023168539664743
153921,-0.070343017578125
153922,-0.07014437058024116
153923,-0.0702316852093949
153924,-0.07004744896760287
153925,-0.0701904296875
153926,-0.0700935080748617
153927,-0.07018562600851441
153928,-0.070037841796875
153929,-0.06994092027785836
153930,-0.07003303802426776
153931,-0.06858684453990566
153932,-0.06805419921875
153933,-0.0676108471455479
153934,-0.06764249427964722
153935,-0.06765210210572667
153936,-0.06803978733919833
153937,-0.06764249418602555
153938,-0.06784594467565168
153939,-0.06745825981666664
153940,-0.06805419921875
153941,-0.06776343578515995
153942,-0.06774421929040612
153943,-0.0677490234375
153944,-0.06784594448840836
153945,-0.06775382767821553
153946,-0.06765690672092882
153947,-0.06754076861353671
153948,-0.06730086843430856
153949,-0.06629802898920334
153950,-0.06566845999571455
153951,-0.06546500950608844
153952,-0.0655811481752243
153953,-0.065155029296875
153954,-0.06500724592783509
153955,-0.06535367526491602
153956,-0.0651694430488736
153957,-0.065593574507923
153958,-0.06645343445022182
153959,-0.06708300456717048
153960,-0.06743423823859318
153961,-0.06748990554641811
153962,-0.06749951505770578
153963,-0.06759163074442033
153964,-0.0677173801419392
153965,-0.06680665778788718
153966,-0.06593718833430529
153967,-0.06536808967227542
153968,-0.065155029296875
153969,-0.06530281219780203
153970,-0.06524714451548128
153971,-0.06536328486982075
153972,-0.06560318280211073
153973,-0.0666060200002824
153974,-0.06723559198967799
153975,-0.06758682519298322
153976,-0.06744384765625
153977,-0.06744384765625
153978,-0.06833054337659472
153979,-0.06921442910999213
153980,-0.06962133008924436
153981,-0.07032379612136819
153982,-0.07154930451693574
153983,-0.07196581631818802
153984,-0.07290817897188484
153985,-0.07402235116020678
153986,-0.07564034406797232
153987,-0.07717583379619018
153988,-0.07885910595725898
153989,-0.08027364818814589
153990,-0.08190125210515481
153991,-0.08348279906822138
153992,-0.08519771115443456
153993,-0.08708443389875113
153994,-0.08871684355444048
153995,-0.09044136693077119
153996,-0.09256798545405205
153997,-0.09489805437333737
153998,-0.0971552332756763
153999,-0.09869072375290881
154000,-0.10095551210812326
154001,-0.10349383725571051
154002,-0.105695348007625
154003,-0.10812714184403838
154004,-0.11076238607645622
154005,-0.11346291115376847
154006,-0.11510012720349905
154007,-0.11714424441972517
154008,-0.11927086219402357
154009,-0.12181399336116083
154010,-0.12395502975583918
154011,-0.12598953465210033
154012,-0.12762675116993918
154013,-0.12925435508691127
154014,-0.1308819590039202
154015,-0.1326160946065942
154016,-0.13394332923001603
154017,-0.13575515777966574
154018,-0.13720815022662133
154019,-0.1380219521851258
154020,-0.13883575414363025
154021,-0.14032038351981735
154022,-0.1407272844990696
154023,-0.140838623046875
154024,-0.1411121630223519
154025,-0.1399106869714449
154026,-0.1391697697870465
154027,-0.13885218583589234
154028,-0.13662384408068246
154029,-0.13462578129059555
154030,-0.1323053281553041
154031,-0.1292727984467537
154032,-0.12537079731854825
154033,-0.12120967623956605
154034,-0.11644301074109832
154035,-0.11106118681798109
154036,-0.10562850038948442
154037,-0.09963151804171767
154038,-0.0933802226053237
154039,-0.08548411065402103
154040,-0.07754954155878203
154041,-0.0694671918093793
154042,-0.06114495077489318
154043,-0.052193129231344136
154044,-0.04250240488598203
154045,-0.032898984028699965
154046,-0.022232255454548596
154047,-0.011245929014738407
154048,3.115084104799446e-05
154049,0.01124015765326379
154050,0.022909715842163662
154051,0.034317365813743186
154052,0.04629209931578478
154053,0.058462688833839455
154054,0.07045184479476269
154055,0.08287193997784124
154056,0.09581787028476506
154057,0.10896446552985001
154058,0.12175299986690857
154059,0.1350329520899824
154060,0.14760082755255402
154061,0.1607185762882523
154062,0.1737950781153217
154063,0.1872131946466514
154064,0.20083476157398558
154065,0.21466939486856138
154066,0.2280146339280625
154067,0.24132621690127098
154068,0.25495739970622067
154069,0.2689398128121766
154070,0.28267752898799503
154071,0.2960131523574277
154072,0.30919137975699057
154073,0.32221221109306186
154074,0.33567638130154376
154075,0.34846694088142866
154076,0.3612747051012759
154077,0.3745910954983776
154078,0.38727031353452723
154079,0.3996031101912435
154080,0.41110767971578027
154081,0.4228521370613577
154082,0.4343518982257801
154083,0.4453017876150407
154084,0.4554887377384196
154085,0.4654674289184363
154086,0.47538083167013545
154087,0.48490656800649984
154088,0.49378070774418686
154089,0.5022699569748815
154090,0.510584608217178
154091,0.5179184434065418
154092,0.5250392105432947
154093,0.531227249722292
154094,0.5370207798015981
154095,0.5423297281256513
154096,0.5468661193401249
154097,0.5511578154969123
154098,0.5541367015488822
154099,0.5568104121940886
154100,0.5578469008913449
154101,0.5577183584525596
154102,0.5578901829667693
154103,0.5563787317622688
154104,0.5535132265402241
154105,0.5503645532005395
154106,0.5463243989052439
154107,0.5414972590495538
154108,0.535344921516081
154109,0.5280303225758337
154110,0.5197637619563287
154111,0.5107438810380996
154112,0.500484059622285
154113,0.4893135205335426
154114,0.4778742399990579
154115,0.4657929835182527
154116,0.45229238328088683
154117,0.43845774998631104
154118,0.4241385385877268
154119,0.40928665284535637
154120,0.3946622661336534
154121,0.3790838745243428
154122,0.3626428627929718
154123,0.3455722608157937
154124,0.3279689836518755
154125,0.3098811294138101
154126,0.2919362435374727
154127,0.2733157138318023
154128,0.2537672737032933
154129,0.23439342463512466
154130,0.21463948714738115
154131,0.1951639127875887
154132,0.1756470960134992
154133,0.15589315815125065
154134,0.1359742506300285
154135,0.11558795934629527
154136,0.09513637495312025
154137,0.07479132599050879
154138,0.054446277027897325
154139,0.03468271785793121
154140,0.014671706446424395
154141,-0.005077422025857706
154142,-0.024618289775952353
154143,-0.04394608629043324
154144,-0.062326734635003274
154145,-0.08025924052140308
154146,-0.0981436416483992
154147,-0.11458394287833572
154148,-0.13024000945906306
154149,-0.1456658157991827
154150,-0.16003793900695
154151,-0.1737852790183029
154152,-0.18662190257382336
154153,-0.1988674177440273
154154,-0.2098537441838375
154155,-0.21995340804567295
154156,-0.22953482432890548
154157,-0.23838973146874817
154158,-0.24669477151436464
154159,-0.2536870052002643
154160,-0.26051702940693805
154161,-0.2667318912568113
154162,-0.27199479629580814
154163,-0.27698414432000257
154164,-0.2812758488091911
154165,-0.28520670403020637
154166,-0.2886653623538503
154167,-0.2916806905119806
154168,-0.29382654294381816
154169,-0.29636486284854663
154170,-0.29871416595725364
154171,-0.299561646752601
154172,-0.3006661905178721
154173,-0.3019425674106649
154174,-0.3021700746804661
154175,-0.302276611328125
154176,-0.3021288348871567
154177,-0.3009177547550917
154178,-0.3003074032862133
154179,-0.29954927546998833
154180,-0.29841311612142435
154181,-0.2960782470808132
154182,-0.2934890649515748
154183,-0.2914717411023932
154184,-0.2899602974813298
154185,-0.2878336907545387
154186,-0.28510635611350194
154187,-0.2822484257040242
154188,-0.27856913687349094
154189,-0.2753262969517062
154190,-0.2730787178239107
154191,-0.27060088500906937
154192,-0.26778626176590176
154193,-0.2636203386931422
154194,-0.25964343016947056
154195,-0.2559765093448139
154196,-0.25241131371815945
154197,-0.2493959827513657
154198,-0.24619644962142628
154199,-0.24285395299806647
154200,-0.2393396198767869
154201,-0.23487333340865976
154202,-0.23100777410576356
154203,-0.22758554159797387
154204,-0.22387257009208103
154205,-0.2208111880695553
154206,-0.2170762281863067
154207,-0.21294673092940597
154208,-0.2090907964918871
154209,-0.20546511293274136
154210,-0.20205250472859904
154211,-0.19870038417615668
154212,-0.19538950117001197
154213,-0.19213429333599416
154214,-0.18907291075172927
154215,-0.1857812782253309
154216,-0.18236866983394065
154217,-0.17921037453117764
154218,-0.1761586171867859
154219,-0.1741144868634083
154220,-0.17127580562300249
154221,-0.16837182331524503
154222,-0.16526439042423982
154223,-0.16291027109113487
154224,-0.16072799125191173
154225,-0.15806115006709462
154226,-0.15557161424730323
154227,-0.15355636142237494
154228,-0.1504028786927377
154229,-0.14826183546361402
154230,-0.1463751053231176
154231,-0.14454405091648256
154232,-0.14232534825727974
154233,-0.13953271722999722
154234,-0.13769203646001996
154235,-0.13554136649306742
154236,-0.1340058612234752
154237,-0.13247516918239252
154238,-0.13076990686516568
154239,-0.12927082385375413
154240,-0.12737927982941497
154241,-0.12685621321772764
154242,-0.12591389082173407
154243,-0.1250128042869036
154244,-0.12337557325757
154245,-0.12180364554253535
154246,-0.1201299926294985
154247,-0.11858967300795065
154248,-0.11751674426422412
154249,-0.11675861869493727
154250,-0.11573173875999539
154251,-0.11447461450029758
154252,-0.11291231464657468
154253,-0.11116854397365698
154254,-0.10944884253270966
154255,-0.10807555179794963
154256,-0.10643832001963358
154257,-0.10457084485276896
154258,-0.10328483738361796
154259,-0.10156995029462167
154260,-0.10056986213513315
154261,-0.09982136508250962
154262,-0.09869757327166911
154263,-0.09708922591986938
154264,-0.09596061994435337
154265,-0.09492411065013025
154266,-0.09416598554896086
154267,-0.09330613524978926
154268,-0.09267652656033173
154269,-0.0918819819160281
154270,-0.09080423807136352
154271,-0.09000006491039196
154272,-0.0897216796875
154273,-0.08978217127126813
154274,-0.08976291330173411
154275,-0.089430947523833
154276,-0.08840888044288643
154277,-0.08771124748723352
154278,-0.0872850880703206
154279,-0.08698954164833343
154280,-0.0861853690490918
154281,-0.08575920925769225
154282,-0.08500589935107339
154283,-0.08488010023999497
154284,-0.08469590893700281
154285,-0.08470072385068836
154286,-0.08399346200387169
154287,-0.08303188706842779
154288,-0.082244873046875
154289,-0.082244873046875
154290,-0.082244873046875
154291,-0.0823198108696785
154292,-0.08130255842154793
154293,-0.08058085155280041
154294,-0.08012308797454708
154295,-0.0791250961173937
154296,-0.07814426077822051
154297,-0.077667236328125
154298,-0.0775703263246779
154299,-0.07707133063015535
154300,-0.076003215489402
154301,-0.07529595411069823
154302,-0.07492546967867345
154303,-0.07362230297650964
154304,-0.07289577997697663
154305,-0.0726366514129247
154306,-0.07238715379972217
154307,-0.07168952365273734
154308,-0.07082004352618541
154309,-0.070343017578125
154310,-0.07024610794916912
154311,-0.06989488523158602
154312,-0.06863295092654258
154313,-0.06791605850337235
154314,-0.067305707034494
154315,-0.06619154505102921
154316,-0.06547465253425112
154317,-0.06486430106537278
154318,-0.06370409242644905
154319,-0.06317138671875
154320,-0.06302361477166259
154321,-0.0624228951898594
154322,-0.06181254372098106
154323,-0.06134996410556847
154324,-0.0604248046875
154325,-0.0604248046875
154326,-0.0604248046875
154327,-0.06025506730058345
154328,-0.05931545920930733
154329,-0.05861301489761019
154330,-0.05824252784415604
154331,-0.05794216838093484
154332,-0.05812635369206739
154333,-0.05792290310881962
154334,-0.05803907744815158
154335,-0.05813116991647454
154336,-0.05789130606279869
154337,-0.05777513144260177
154338,-0.05797858193222788
154339,-0.057876856640604
154340,-0.05778958105203978
154341,-0.05797376523971245
154342,-0.05767822265625
154343,-0.05709677106162688
154344,-0.05617161052008013
154345,-0.05549594628101892
154346,-0.055389404296875
154347,-0.05524163319239169
154348,-0.05534335848401557
154349,-0.055430633229971084
154350,-0.05568976319836166
154351,-0.0555419921875
154352,-0.055445083869261114
154353,-0.055241633379635
154354,-0.055495946561883884
